1503510957307,-1, -1, 0, -3, 0, -2, -4, -4
1503510957314,-1, -6, -23, -10, -1, -1, -2, -4
1503510957322,1, 0, 1, 1, 0, -1, -2, 2
1503510957336,-2, 3, -3, 0, -1, -1, 1, -2
1503510957348,-2, -1, -4, -2, 1, 1, 2, 1
1503510957358,3, 2, -1, 1, 0, 1, -1, 1
1503510957368,0, -2, -7, -4, -2, 1, -1, 0
1503510957369,-1, 0, -3, -3, -3, -2, -2, -2
1503510957383,1, 1, 5, 2, 0, 0, 1, 3
1503510957384,-2, -2, -7, -3, -3, -1, 0, -2
1503510957385,-2, -3, 0, -1, 0, 0, 0, 0
1503510957396,1, 1, -4, -1, -2, -2, -2, 0
1503510957404,1, -2, 0, -1, -3, -1, 1, -2
1503510957412,-1, -1, -4, -3, 2, -1, 0, 1
1503510957427,-2, -1, 0, 0, -1, -2, -2, -5
1503510957434,1, -1, -3, 0, -1, -2, -5, -4
1503510957442,-2, -1, -2, -2, -2, -2, -3, -5
1503510957456,-1, 0, 0, -2, -2, -1, -1, -6
1503510957464,-1, -2, -1, -1, 1, 1, 0, 2
1503510957472,1, 1, 0, 1, -1, 2, 3, 2
1503510957487,0, 1, 0, -2, -3, -1, 0, 1
1503510957495,2, 0, -1, -2, 0, 2, 3, 9
1503510957503,1, -2, 1, 2, 0, 2, 0, 0
1503510957516,1, 1, 2, 1, 0, 1, 1, 2
1503510957526,-2, 0, 0, 0, -1, 1, -1, 1
1503510957538,0, 1, 0, -1, -2, -2, -1, 0
1503510957539,0, 3, 0, -2, -1, -1, 1, 2
1503510957547,-2, -3, -1, -2, -2, -2, -2, -2
1503510957554,-2, -1, -1, -3, -1, -1, -3, -8
1503510957569,-4, -3, -5, -1, -2, -2, -3, -9
1503510957576,-1, -1, -1, 1, -1, 0, 0, -1
1503510957585,2, 1, -2, -1, -1, 0, 0, 1
1503510957599,-3, -2, -2, 0, 0, -2, -2, -2
1503510957607,2, 0, -1, -2, 1, 0, 0, 0
1503510957614,-1, -3, -3, 0, -1, -1, 0, 2
1503510957632,1, -3, -1, -1, -2, -1, 0, 0
1503510957638,-3, -6, -2, -2, -1, 0, 0, -3
1503510957644,0, 1, 1, -1, 0, -2, 2, 2
1503510957661,3, 2, -2, 1, 0, -1, 1, 4
1503510957667,-1, 1, 1, -1, 0, 0, -1, 2
1503510957674,-1, 0, -1, -1, -1, -1, -1, 0
1503510957689,2, 0, 1, -1, -1, 0, 0, 0
1503510957696,-2, 0, -2, 0, 0, 0, -2, -3
1503510957704,-3, -3, -2, 1, 0, 1, -2, -2
1503510957719,1, -2, 0, -2, 1, -1, -1, 1
1503510957728,-2, -2, 0, 0, -1, -1, -1, 1
1503510957734,0, 0, -1, 0, -2, 0, 1, 0
1503510957749,1, 0, 0, 0, 1, 0, 0, -2
1503510957756,0, 0, 1, -2, -2, -2, -2, -2
1503510957765,0, -1, -1, -2, -1, -1, -2, 0
1503510957778,-1, 0, -3, 0, 0, -1, 0, -3
1503510957787,-3, -3, -3, -1, -2, -1, -1, -3
1503510957794,-4, -8, -2, -1, 1, 1, 0, -1
1503510957809,-2, -1, -2, -2, -2, -1, -2, -4
1503510957816,-1, 1, 0, 0, -1, -1, -1, 1
1503510957824,0, -1, 0, 1, -1, -2, -2, 0
1503510957839,0, -2, 0, -2, -1, -1, -1, -2
1503510957847,-2, 1, -1, -3, -1, -2, -1, 0
1503510957854,-2, -1, -2, 0, -2, -1, -3, -2
1503510957870,-2, -2, -1, 0, 0, -1, 0, -2
1503510957876,-2, -3, -2, -1, -2, 0, -3, -5
1503510957884,-2, -2, -2, -2, 0, -1, -3, -4
1503510957899,-1, -1, -15, -7, -2, 0, -1, 1
1503510957907,2, 5, 10, 6, 0, 0, 1, 0
1503510957914,4, 0, -15, -4, -1, -1, 3, 3
1503510957929,0, -2, 3, -1, -1, 0, -1, -1
1503510957938,-2, -3, 4, 1, -3, -1, -1, 1
1503510957944,0, 2, 2, 0, -1, 0, 1, 1
1503510957958,0, 2, 5, 1, -2, -3, -3, -3
1503510957967,0, 0, -6, 0, -2, 0, 1, 1
1503510957974,-2, 0, 6, 2, 0, 0, -1, -4
1503510957989,0, -3, -5, -3, -2, -1, -1, -2
1503510957996,-2, 0, 5, 2, 1, -1, -1, -2
1503510958004,0, -3, -3, -2, 0, -2, 0, 1
1503510958018,-2, -2, -1, 1, -2, -2, -1, -1
1503510958029,-1, -3, -3, -2, 0, -3, -2, 1
1503510958034,0, 0, 1, -2, -1, -1, -1, -3
1503510958049,-1, 0, 1, -1, 0, 0, -1, -2
1503510958056,1, 1, 3, 2, -1, 0, 2, 2
1503510958064,0, -2, -3, -2, -1, -1, -1, -3
1503510958078,1, 2, 1, -1, 0, 0, 2, 2
1503510958087,0, 1, -2, -2, -2, -1, 0, -1
1503510958096,1, 1, 0, 0, -2, -1, -1, 0
1503510958109,-2, -2, -2, -2, 1, -1, -1, -1
1503510958116,-4, 0, 0, -1, 0, -3, -4, -7
1503510958124,1, 2, 1, 0, 1, 1, -2, 1
1503510958139,1, 0, -2, -1, 0, 0, 0, 2
1503510958147,0, 2, 0, 1, -1, 1, -1, 3
1503510958154,-1, -2, 0, -1, -2, 1, -1, -2
1503510958170,-1, -3, -1, 0, 0, -2, -2, -2
1503510958176,-1, -2, -2, 0, 1, 0, 1, 2
1503510958184,0, -2, -1, 0, -2, -3, 0, -1
1503510958199,-1, 0, -1, -1, -1, -1, -2, -1
1503510958207,-1, -1, -1, 0, 1, -1, 1, 2
1503510958214,0, -1, 0, -3, 0, -1, 0, 0
1503510958233,-2, 0, 1, -1, -3, -1, -2, -3
1503510958236,-1, -3, -1, -1, 0, -1, -1, -7
1503510958244,0, 0, -1, -1, -2, 1, -1, 0
1503510958258,-1, -1, -2, 1, -1, -1, 1, 1
1503510958267,-1, -3, 0, 1, -2, -1, -3, -2
1503510958274,-1, 1, 1, 1, -1, 1, 0, -1
1503510958289,-2, -1, -2, -2, -2, 0, 2, -1
1503510958298,-2, -2, -2, 1, -1, -2, -3, -4
1503510958305,-2, -1, 0, -1, -1, -1, -3, -2
1503510958318,0, 1, 0, -1, -2, -1, 2, 1
1503510958319,0, 1, -1, -1, -1, 1, -2, 0
1503510958326,0, 0, -2, 1, -1, -1, -2, 0
1503510958341,-1, -1, 0, 0, -3, -1, -1, 2
1503510958349,2, 1, -2, -1, 0, 0, 3, 0
1503510958364,0, 1, -2, -2, -1, 0, -2, -1
1503510958366,-1, -2, 0, -1, 1, 0, 1, -2
1503510958378,-3, -1, 1, -2, 0, 0, 1, 1
1503510958387,-1, 2, 1, -1, 0, 0, 0, 0
1503510958394,-4, -1, -1, -1, -2, -3, -2, -1
1503510958409,3, 0, 1, 0, -1, 0, 0, 0
1503510958416,0, -2, -1, -2, -1, -1, 1, 0
1503510958424,-1, 0, -1, -2, -2, 0, -1, -2
1503510958440,0, 1, 1, 0, 0, 0, 0, 2
1503510958447,-3, 0, -2, 0, 2, 1, 0, -1
1503510958461,0, -2, -2, -3, -1, -1, -1, -1
1503510958469,-2, -2, 0, 0, -2, -2, 0, 2
1503510958476,-2, -1, -4, -1, 1, -1, 0, -1
1503510958492,1, 1, 1, 0, 1, -2, -1, -3
1503510958499,-1, 0, -1, 0, -1, -1, -3, -3
1503510958507,-3, -2, -3, -2, -4, -3, -3, -5
1503510958521,3, 1, 0, -1, 0, -1, 2, 0
1503510958529,-3, -2, -1, -1, 1, 1, -1, 1
1503510958536,-3, -6, 0, 0, -2, -1, -2, 2
1503510958552,-2, -2, -2, -1, 0, -2, -3, -5
1503510958558,2, 3, 0, -1, -2, -1, -1, 5
1503510958567,0, -2, -1, -2, -2, -2, -2, -2
1503510958581,-1, -3, -2, 0, 0, -1, -1, -4
1503510958589,-4, -4, -2, -2, -1, -1, 0, -1
1503510958596,0, 1, 0, 0, 0, -2, -1, 0
1503510958612,-1, -1, -1, -1, -1, 0, 2, 5
1503510958618,0, 1, 1, 1, -1, 1, 0, 2
1503510958626,1, 1, -1, 0, -1, -3, 0, 1
1503510958627,0, -1, -3, -1, 0, -1, -1, 1
1503510958641,-2, -1, -2, 0, -2, 1, -1, -3
1503510958649,-1, -3, -2, -1, 0, -2, 0, 1
1503510958656,-1, -4, -2, -1, -2, -1, -1, 1
1503510958672,0, 1, 1, -1, -1, -1, -1, -3
1503510958678,-1, 1, 0, 0, -1, 0, 0, 1
1503510958687,0, 0, -1, 0, 0, 0, -2, -2
1503510958702,-1, -1, 1, -1, 2, -1, -1, -2
1503510958709,-1, 0, 0, -2, 0, -1, 1, -3
1503510958716,-5, -3, -3, -1, -3, 0, -1, -4
1503510958734,-1, 1, 1, 2, -2, -2, -2, 1
1503510958738,0, -2, 0, 1, 0, -2, 0, 2
1503510958739,1, 1, 1, 0, 0, 0, 0, -1
1503510958747,1, 0, 2, 0, 1, 1, -1, 0
1503510958761,-1, 0, 0, -2, 0, 0, 1, -3
1503510958769,0, 1, 2, -1, -1, -2, 0, 0
1503510958776,-4, 3, 0, -1, -3, -2, -2, -1
1503510958792,2, -1, -1, -2, -2, 0, 0, 1
1503510958801,-1, -1, -1, 0, 0, 0, 0, 0
1503510958807,1, 0, -2, -2, -1, 0, -1, 0
1503510958821,1, 0, 0, -1, -1, -1, -1, 2
1503510958829,0, -3, -3, 1, 1, -1, 0, 0
1503510958836,1, 0, -1, -2, 0, -1, 0, 0
1503510958852,-3, 1, 1, 2, -2, 2, 0, -2
1503510958858,2, 0, -1, 0, 0, 0, 0, 0
1503510958868,3, 0, -1, 0, -1, -2, 2, 4
1503510958881,-6, -3, -2, 0, -2, -3, 0, -4
1503510958889,-7, -5, -2, -2, -3, -1, -3, -7
1503510958905,-2, 0, -1, -1, 1, -4, -2, -2
1503510958912,-1, -1, -2, 1, -2, 0, -1, 2
1503510958920,-2, -2, -2, -3, 0, 0, 0, -4
1503510958927,-2, -2, 0, -2, 0, -1, -2, -1
1503510958943,2, -2, -3, -1, -2, 1, 0, 0
1503510958949,2, 0, 0, -1, -1, -2, -1, -2
1503510958968,-1, 1, 0, 0, -1, 0, -2, -1
1503510958972,-1, -1, -1, -1, 0, -1, 0, -4
1503510958980,-12, -5, -1, -1, -2, 0, -1, -5
1503510958987,11, 2, -3, 1, 0, -1, -1, 3
1503510959002,-3, 0, 1, 1, -2, -1, 0, -2
1503510959009,21, -1, -5, -3, -2, -2, -3, 1
1503510959025,-5, -3, -1, -1, -1, 0, 0, 0
1503510959031,-11, -6, -1, -1, 0, 0, 1, 1
1503510959040,3, -2, -3, -1, 0, -1, 1, 1
1503510959047,-5, -1, 0, 0, -2, -1, -1, -3
1503510959062,6, 1, 2, 1, -1, -2, -2, 1
1503510959069,-3, -1, 0, 0, 0, 0, -1, 0
1503510959085,5, 1, -1, -2, -2, -1, 0, 4
1503510959091,-12, -1, 0, -1, 0, -1, -1, -5
1503510959104,-7, -2, -1, -1, 0, 0, 0, -4
1503510959107,6, 0, -3, -1, -2, -3, -2, -2
1503510959122,-14, -1, 9, -6, 0, -1, -2, -1
1503510959129,6, 7, 3, 1, 1, 1, 1, 4
1503510959145,12, -3, -24, -6, -2, -2, -2, -3
1503510959152,-12, -2, 7, 2, -2, -1, 0, -1
1503510959160,4, 0, -3, -3, -1, 0, -3, 4
1503510959168,-1, 0, 0, 2, 0, -1, -3, -3
1503510959182,1, 2, 1, 2, -2, 0, -1, -4
1503510959189,-9, -11, -9, -5, -3, -2, 1, -1
1503510959205,8, 8, 10, 7, 2, 1, 3, 8
1503510959212,2, 9, -1, -1, 0, 1, 0, 2
1503510959220,-12, -11, 0, -2, -3, -3, -5, -4
1503510959227,32, -11, -4, 0, 0, -1, 2, -1
1503510959243,5, -7, -7, -5, -2, -1, -2, -1
1503510959249,9, 0, 2, -1, -1, 0, -1, -2
1503510959265,1, 0, -2, 0, 1, -1, 1, 0
1503510959272,-11, 1, 0, -2, -1, -2, -2, 1
1503510959280,-9, 3, 0, 2, -1, 0, -1, 0
1503510959287,18, 4, -3, 0, -2, 2, 2, 5
1503510959307,-16, 2, 2, 3, 9, 0, -1, -4
1503510959310,-20, -9, -1, -2, 1, 0, 0, -3
1503510959325,11, 2, 0, 1, -5, 0, 1, 2
1503510959331,-10, 5, -1, -1, -2, -2, 0, 0
1503510959332,-8, -3, -3, -2, -1, 0, -2, -5
1503510959341,-5, -6, -2, -2, 0, 0, -4, -4
1503510959347,4, 1, -1, -3, -3, -1, -2, -1
1503510959362,26, 0, -3, -1, -1, -1, 1, 0
1503510959370,6, 11, -2, -1, -1, 0, -1, 2
1503510959385,15, 6, 1, -3, -2, -1, -2, -5
1503510959392,-18, -6, -1, -2, -1, 0, -2, -4
1503510959400,4, -3, -1, 2, -2, 1, 1, 2
1503510959414,-9, 3, -2, -1, 0, -3, -2, -4
1503510959422,-10, -4, -2, 1, -1, -1, 0, -4
1503510959429,7, 0, 4, 1, 2, 1, 1, -2
1503510959445,0, -1, -1, -1, -3, -2, 0, -1
1503510959451,-5, -4, -1, 1, 0, -1, 0, 2
1503510959460,9, 2, 1, 1, 0, -2, -1, 2
1503510959474,-5, 1, -1, -2, -1, -1, -2, 1
1503510959475,7, 4, 1, 0, -2, -3, -3, -5
1503510959482,-8, 18, -1, 0, 0, -1, -1, -3
1503510959489,-18, -7, -3, -2, -2, -2, -2, -8
1503510959505,-12, 2, 1, -2, -1, -2, 0, -1
1503510959525,-8, -18, -1, -1, -3, -1, -2, -5
1503510959536,3, 7, -1, 1, 21, 8, 0, 0
1503510959543,-2, -6, 2, -1, -7, -5, -2, 2
1503510959549,-17, 31, -6, -10, -33, -5, -4, -4
1503510959565,-6, 0, 1, -4, -6, -2, -1, -7
1503510959572,-2, -11, 3, 5, 37, 7, 0, -2
1503510959580,-3, -4, -7, -2, -16, -8, -2, 1
1503510959594,-10, -13, -1, 1, 4, 1, 1, 2
1503510959604,-15, 14, 12, 1, -7, -1, -1, -2
1503510959609,9, 8, -1, -3, -23, 8, -1, 1
1503510959624,11, -7, -2, 1, 9, -3, 1, 3
1503510959631,-3, -13, -1, 0, -1, -5, -2, -2
1503510959632,3, 1, 5, 5, 5, 1, 1, -4
1503510959647,-8, 2, -6, -5, 0, 3, -1, -1
1503510959654,-1, -24, -4, 2, 6, -8, -2, -5
1503510959662,4, 5, 4, -1, 0, 7, 1, 0
1503510959670,-5, -36, -11, -8, -37, -27, -3, 3
1503510959685,-3, 9, 5, -4, -34, -8, -1, -2
1503510959692,12, 39, 11, 7, -9, -7, -6, 2
1503510959700,5, -27, -3, -2, -14, -1, 0, -2
1503510959714,-7, -9, 1, 3, 41, 20, 1, -6
1503510959722,13, 50, -2, 4, 15, 13, 2, 11
1503510959729,-3, 2, 1, -5, -10, -18, -2, 3
1503510959745,-1, -35, -8, 2, 12, 5, 6, 1
1503510959752,-20, -16, -10, -6, -20, -10, 2, 2
1503510959760,-16, -14, -3, 4, 70, 18, 1, -1
1503510959775,7, 3, 0, -6, -60, -4, -1, -1
1503510959782,11, -8, -2, -2, 9, -5, -2, 2
1503510959789,0, -8, -8, 3, 67, 14, -2, -5
1503510959806,-3, -7, -4, -5, -19, -9, -3, -8
1503510959812,-2, 8, 12, 6, 20, 6, 1, -1
1503510959820,3, 11, -4, 1, 13, 4, 0, 0
1503510959834,6, 22, 2, -3, -26, -20, -6, -5
1503510959844,0, -14, -1, -1, 2, -5, 0, -4
1503510959849,0, 6, 1, 1, -1, 15, -1, -6
1503510959864,-9, -27, 1, -6, -21, -5, 0, -1
1503510959872,-2, -12, -14, -3, -26, -16, -3, -2
1503510959874,2, 11, 5, -3, 12, 2, 1, 7
1503510959881,3, 17, 3, -4, -25, -4, -4, 2
1503510959894,2, -22, -4, -1, 5, -1, 1, 1
1503510959902,2, 12, -1, 2, 22, 8, -2, -2
1503510959909,-1, -6, 0, 1, 8, -6, -1, -2
1503510959924,-2, 0, -5, -2, -18, 7, 3, 2
1503510959925,-4, -5, -39, -14, 10, -8, -2, 1
1503510959931,-2, 2, 20, 15, 7, 13, 0, -3
1503510959940,-8, -31, -9, 0, 1, -7, -1, 0
1503510959954,11, 7, -9, -4, 8, 11, 4, 5
1503510959962,-6, 28, 6, 0, -71, -26, -9, -6
1503510959969,-2, -14, -9, -6, -1, -2, 2, 8
1503510959985,16, 30, 12, 5, -19, -26, -6, -1
1503510959992,7, 27, -5, -7, -20, -7, -5, -2
1503510960000,-23, -50, -7, -7, -62, -13, -7, -9
1503510960015,5, -6, -5, -2, 16, 6, 3, -5
1503510960022,-4, 30, 5, -10, 5, 29, 1, -2
1503510960029,-16, -50, -9, 4, 62, 50, 5, 5
1503510960059,-9, -24, -9, -1, 96, 19, 7, 11
1503510960061,-2, -26, -5, -6, -46, -12, -3, 6
1503510960063,10, -45, -1, 11, 86, 34, -2, 7
1503510960077,-30, 22, 7, -17, -41, 0, 8, -30
1503510960083,-8, 2, 5, 4, 52, 49, 1, -16
1503510960089,-11, -68, 1, 6, -93, -95, -13, -5
1503510960106,-51, -35, -17, -6, -61, 2, 6, 4
1503510960112,13, 11, 10, 4, 31, 21, -1, 3
1503510960120,9, 12, 14, 13, -54, -50, -4, 6
1503510960134,18, 10, -7, 9, 25, 44, 13, 11
1503510960142,46, 19, -6, 11, 127, 41, -3, -4
1503510960149,6, 1, 13, -34, 25, -47, -16, -15
1503510960164,-15, -39, 5, 30, -95, 55, 5, -3
1503510960173,-65, -76, -42, -52, -62, -24, 12, 8
1503510960179,-72, -5, -30, -27, 15, -56, -39, -93
1503510960180,36, 121, 23, 37, 51, 6, 5, 16
1503510960194,12, 16, 11, -3, 60, 77, 0, 18
1503510960202,6, -24, -10, -9, -15, -94, 0, -4
1503510960209,-1, -2, 1, 82, -34, 16, -6, 8
1503510960225,13, 8, 8, -24, 69, 5, 1, -9
1503510960231,7, 25, -22, -79, -3, -39, 5, -14
1503510960240,10, -1, -4, 15, 69, 28, -7, -1
1503510960241,-11, -2, 3, 3, -23, 41, 7, 13
1503510960254,12, 18, 11, 31, -31, -16, -12, -9
1503510960262,-14, -27, -6, -18, -23, -40, -20, -10
1503510960269,14, 42, 11, 17, 58, 25, -1, -10
1503510960284,-17, -20, -19, -13, -17, -29, -9, 6
1503510960285,23, 14, 4, -22, -111, 4, 1, 8
1503510960291,10, 61, -8, 3, 37, -5, 5, 17
1503510960307,-3, 4, -4, -12, -54, -26, 0, -11
1503510960315,10, -8, 5, 8, 13, 0, -3, 6
1503510960322,-16, 8, 1, -8, -67, -41, -7, -1
1503510960337,-4, -7, 0, 3, 47, 16, 11, -1
1503510960346,0, -7, -6, 30, -15, -10, 1, 2
1503510960352,-1, -11, -5, 22, -8, 2, -6, -13
1503510960367,-2, -11, 2, -12, 37, 2, -3, -4
1503510960375,0, 13, 3, -9, -24, -5, 0, 0
1503510960384,2, -2, 1, -3, 9, 2, -7, -5
1503510960398,-3, -31, -3, -6, -15, -3, -3, -1
1503510960408,-14, -13, -1, -7, -3, 13, 0, -4
1503510960412,5, -1, 2, -3, -49, -40, -7, -2
1503510960427,2, 3, 0, -10, 29, 9, 2, -1
1503510960434,-3, -7, -4, -3, -15, 1, -2, 0
1503510960442,-1, 5, 2, -3, 20, 4, 2, 1
1503510960457,2, 0, -2, 3, 11, 5, 0, -1
1503510960465,0, -1, 3, -2, 9, 4, 1, -2
1503510960471,1, 0, 3, -2, -3, 4, 0, 2
1503510960487,6, 0, 3, 2, -3, -2, -5, -12
1503510960494,1, -1, -1, -1, 0, 3, -1, 0
1503510960502,-2, -5, -4, -5, 3, -2, 1, 2
1503510960518,-1, -1, 2, 3, -8, -1, -3, -5
1503510960525,4, -2, 1, -4, 0, -4, 1, 4
1503510960532,-4, -2, -3, -2, -9, 1, 1, 2
1503510960547,0, 5, -2, 1, 7, 2, -1, 0
1503510960554,1, 1, 0, -2, 3, 0, -3, 2
1503510960562,-2, -2, -1, 0, -1, 1, 1, 0
1503510960582,-1, 3, 0, -2, -2, 1, 0, -1
1503510960585,-3, -3, -1, -1, -2, -2, -5, -9
1503510960591,0, 0, 0, -1, -1, 0, 2, -2
1503510960610,-3, -3, -3, -2, -4, -3, 1, 6
1503510960614,-2, 2, 4, 1, -2, -3, -4, -11
1503510960622,0, 2, 1, -1, 0, 1, 1, 2
1503510960637,-5, -4, -2, -3, 2, -1, 1, -2
1503510960644,0, 0, -3, 0, 1, -1, -1, 8
1503510960645,1, -1, 0, 0, 2, 0, 0, 2
1503510960652,-3, -4, -1, -2, -3, 0, 1, 1
1503510960667,4, -2, 0, 1, -3, -2, 0, 6
1503510960675,-3, -6, -6, -3, -3, -1, -3, -7
1503510960677,-7, -13, -3, -2, -1, -1, -2, -4
1503510960682,-4, 1, 1, 0, 0, -2, 0, -5
1503510960696,2, -7, -1, 1, -1, -1, 0, -3
1503510960697,4, 0, -2, -2, -3, -1, -3, 5
1503510960705,2, 4, -1, 0, 1, 1, 1, 2
1503510960713,0, 0, 1, 1, 0, 0, -1, 7
1503510960727,-3, -2, -2, -2, -2, -2, -3, -13
1503510960734,3, 0, -4, -1, -1, -3, 1, 0
1503510960744,-1, -2, -1, -1, 1, 0, 1, 18
1503510960762,3, -7, -2, 0, -3, -2, -2, 2
1503510960765,-4, -7, -3, 0, -2, -1, -1, -5
1503510960772,3, 4, 0, -1, 0, 0, -1, 0
1503510960787,0, -2, -1, -2, -2, -1, -3, -7
1503510960794,-3, -7, -7, -1, -1, -1, -1, -2
1503510960802,-3, -1, -6, 0, 0, -3, -4, -20
1503510960817,-2, 3, -30, -11, -3, 1, 0, -4
1503510960824,-3, 4, 18, 14, 0, 1, 1, -12
1503510960832,-7, 4, -6, 0, 1, -1, 0, 15
1503510960847,-11, -6, -6, -5, -1, -1, -2, -8
1503510960856,15, 5, 9, 1, 1, -1, -2, -2
1503510960862,16, 24, 4, -3, 1, 0, 2, 9
1503510960878,-6, 23, 14, 2, 0, -1, 0, -14
1503510960885,-12, -40, -17, -5, 0, 1, 2, 2
1503510960891,1, -9, 5, 1, 0, 0, 1, -1
1503510960907,35, 5, -2, -3, -2, 0, 0, 12
1503510960914,5, -6, 4, 1, -1, -2, -5, -14
1503510960929,-2, 4, -7, -2, -2, -1, 2, 30
1503510960930,-5, -1, -5, -4, -1, -1, 1, 3
1503510960937,2, 6, 5, 1, -1, 0, 2, 4
1503510960945,-7, -4, -1, -3, -2, 0, -2, 3
1503510960952,-3, -16, -1, 0, 0, -1, -2, 0
1503510960967,1, 8, 6, 2, -1, -1, -2, 1
1503510960974,2, -15, -5, 0, 4, 0, 1, 0
1503510960982,-4, 31, 6, -2, 0, 0, -1, 5
1503510960997,15, -9, -4, -1, -1, -2, -3, 3
1503510960998,-23, -10, -2, -1, -3, -1, -2, 3
1503510961004,7, -9, -6, -3, -1, -2, -1, 2
1503510961012,11, -3, 0, -1, -3, 0, 2, 17
1503510961026,-8, 0, 4, 1, -1, -1, -3, -6
1503510961034,-15, -14, -4, -2, 0, 0, -1, -7
1503510961044,10, 23, 0, -1, -3, -1, -3, -2
1503510961057,-20, -42, -2, 1, -2, -3, -1, -4
1503510961064,23, -2, -4, -3, 1, -1, -2, 6
1503510961071,-16, 14, 0, 0, -2, -1, -1, -2
1503510961087,-35, -22, 1, 1, 0, -2, 0, -3
1503510961094,-17, 8, -1, -2, 1, -2, 1, -2
1503510961103,-11, -7, -6, -3, -2, -1, -1, 0
1503510961117,43, 16, 8, 1, 0, -1, 1, 3
1503510961124,-4, 6, 2, 2, 0, 0, 0, -6
1503510961131,11, 11, 2, 1, 1, 0, 0, 8
1503510961147,-14, -10, -4, -1, -1, -4, -4, 5
1503510961154,33, 34, 17, 2, -1, 2, 3, 14
1503510961162,-9, -5, -3, -4, -1, -2, 0, 14
1503510961179,-40, -15, -13, -6, -3, -1, -1, -9
1503510961185,22, -5, 5, 3, 1, -1, -5, -9
1503510961192,6, 13, 5, 1, -1, 2, 0, 4
1503510961206,4, 0, 1, 1, 0, -1, -1, -13
1503510961214,-2, -10, -10, -5, -1, -2, -3, 7
1503510961222,5, -3, -3, -1, 2, 3, 8, 39
1503510961236,14, -2, -4, -1, 0, 1, 5, 13
1503510961245,-72, -22, -10, -5, -1, -1, -7, -13
1503510961259,0, 4, 6, 1, -2, -3, -2, -7
1503510961267,15, 21, 10, 2, -1, 1, 6, 7
1503510961274,-14, -7, -1, 2, -1, -3, -6, -22
1503510961289,3, -2, 3, 0, 6, -4, -10, -16
1503510961296,-24, -8, -5, -4, 0, -2, -4, -39
1503510961304,1, 2, -2, 0, -1, 0, 5, 14
1503510961319,34, 8, -1, -1, 0, -2, -1, 47
1503510961327,39, -2, -4, -1, -4, -1, 3, 4
1503510961334,-22, -8, -2, 0, -4, -2, -7, -24
1503510961350,-27, 10, -1, -1, -2, 0, 5, -8
1503510961356,-6, 4, 4, 1, 1, -1, -2, -7
1503510961364,10, 0, 3, 2, 2, 2, 3, 1
1503510961380,7, 9, -4, -1, -1, -1, -2, 4
1503510961387,4, -5, -5, -2, -2, -1, 0, 1
1503510961395,12, -19, -6, -3, -2, -1, -3, 14
1503510961409,28, 1, -1, -1, -1, 0, 2, 2
1503510961417,0, -1, -3, 0, -2, 2, 7, -6
1503510961424,-3, -1, 1, 1, -4, -2, -5, -17
1503510961425,17, 3, 0, -2, -1, 0, -2, -9
1503510961439,18, -5, -5, -2, 2, -2, -4, 1
1503510961448,1, -15, -1, -1, -3, -1, -3, -5
1503510961456,-7, 55, 15, 1, 1, 1, 0, -6
1503510961469,0, 2, 1, 3, -2, -3, -7, -8
1503510961476,-11, -13, -6, -2, 0, 0, 0, -13
1503510961486,13, 18, 2, -1, 2, 2, 7, 41
1503510961499,1, 8, -4, 1, -3, 0, 2, -1
1503510961507,-13, 14, 0, -2, 2, -1, -3, 8
1503510961515,-7, -13, -3, -3, -2, -1, -1, 5
1503510961535,22, -18, -9, -3, -5, -1, 0, -9
1503510961536,-2, -5, 5, 2, 1, -2, 0, -4
1503510961545,-2, -13, -8, -3, -6, -2, -5, -22
1503510961559,7, 8, -3, -3, -3, -3, 2, -4
1503510961567,-22, -33, -9, -1, 0, 3, -1, -7
1503510961574,15, 2, 2, -3, 3, 2, 2, -10
1503510961590,-5, -9, -2, -1, -1, -1, 3, 4
1503510961597,-4, -5, -3, -1, 1, 0, 1, 0
1503510961605,-13, -1, 0, 0, -1, -4, 1, 5
1503510961619,-8, 3, -3, -1, -1, -2, -6, -2
1503510961627,-10, -20, -2, -2, -1, 0, 0, -7
1503510961634,2, 8, 0, 2, -1, -1, -3, -6
1503510961649,-13, -22, -4, -2, 0, -1, 1, -13
1503510961658,-1, -20, -8, -2, -1, 0, 1, 7
1503510961664,-4, 18, 4, -2, 0, -3, -4, -7
1503510961679,-9, 13, 3, 3, -2, -3, -6, 23
1503510961687,5, 0, -3, -2, 1, 0, 3, 26
1503510961694,-7, 17, 10, 3, 1, 3, 0, -13
1503510961709,5, 14, 2, -1, -3, -2, -3, -2
1503510961719,21, -3, -2, 1, -2, 0, 0, 7
1503510961720,-1, -15, -4, -3, -1, -2, 0, 3
1503510961725,3, 2, 2, 1, 0, -2, -2, -8
1503510961739,14, -5, -4, -3, -2, 1, 0, -8
1503510961749,-19, 0, 4, 3, -1, -2, -1, -16
1503510961755,22, 3, 0, 0, -2, -4, -4, 0
1503510961769,-26, -1, -2, 0, 0, 0, -2, -4
1503510961776,-40, -14, -2, 1, 1, -1, 1, -1
1503510961785,10, 8, 1, 0, -2, -1, -1, -8
1503510961799,-1, -10, -3, -2, -2, -1, 3, -2
1503510961807,15, 15, 0, -1, -1, 0, -4, 1
1503510961816,8, -5, -2, 4, -1, -1, -3, -1
1503510961829,-1, -2, -1, -2, 1, -1, 3, 7
1503510961836,1, 5, 2, -3, 0, -1, 0, -13
1503510961845,1, 13, 2, -1, -1, -2, -3, 12
1503510961860,3, -1, 1, -1, 1, -1, -1, 8
1503510961867,-17, -5, -9, -3, -1, 2, 2, -10
1503510961874,2, -1, 34, 29, 0, -3, -1, 5
1503510961889,4, 1, -2, -6, 0, -2, 0, -7
1503510961896,-34, -1, -10, -3, -2, -1, 0, -2
1503510961897,2, -9, -21, -14, -2, 1, 4, -2
1503510961904,28, 1, 2, 4, 0, -1, -4, -3
1503510961919,-1, -4, -6, -6, -1, 0, -1, 1
1503510961928,-2, -2, 0, -3, -2, 1, -2, -4
1503510961934,-23, -18, -4, -2, 2, 0, -4, -9
1503510961950,-6, 3, -9, -4, -5, -1, 0, 0
1503510961951,0, 1, 0, 0, -3, -2, 4, -3
1503510961956,3, 1, -10, -6, 0, -1, -7, 1
1503510961964,-15, 15, 6, 3, -1, 0, -5, -15
1503510961979,0, 3, -4, -2, -2, -1, 3, 6
1503510961987,-4, -2, 3, 3, -2, -2, 1, -7
1503510961994,-3, -7, -4, -1, -1, 0, 4, 10
1503510962009,-19, 0, -2, 0, 1, -2, -5, -4
1503510962018,-50, -29, -11, -4, -3, -2, 1, -1
1503510962031,6, 3, -1, -2, 0, 0, -4, -1
1503510962039,15, 6, 0, 1, -2, -2, -2, -13
1503510962047,-31, -10, 3, 0, 0, -1, -1, -1
1503510962054,17, 16, 5, -4, -2, -2, -3, -9
1503510962069,24, 5, -2, -2, -9, -2, -1, 7
1503510962076,7, -1, 1, -3, 0, 0, -2, -3
1503510962085,-5, -11, -4, -2, 4, 0, 0, -13
1503510962099,10, 0, -7, 0, -3, 0, -1, 3
1503510962107,6, -15, -1, 0, 2, 3, 2, 5
1503510962114,16, 1, 6, 2, 1, -3, -3, 3
1503510962129,-1, 3, 5, -1, 1, -2, -2, 1
1503510962136,13, -1, -11, -2, -1, -1, -2, -3
1503510962145,8, -1, 1, 0, -2, -1, 2, 5
1503510962159,-19, -15, 11, 2, 1, 0, 0, 9
1503510962174,18, 5, 3, 3, 1, -2, 5, -4
1503510962181,18, 19, 2, -1, -1, -1, -3, -14
1503510962189,21, -8, -5, -4, 6, 1, -1, 0
1503510962203,15, 6, 2, 2, 1, -2, 1, -2
1503510962211,17, -5, 2, 2, -1, -1, 0, 7
1503510962212,-10, -13, -9, 0, 0, -3, -1, -2
1503510962219,-22, -4, 0, -3, -5, -2, -2, -4
1503510962227,-12, 3, -3, -8, -5, -4, -5, 4
1503510962241,-9, 3, 3, 8, -3, 2, 1, 0
1503510962249,-16, -5, -1, 13, -1, 0, -2, -4
1503510962257,-14, -3, -2, -1, 2, 0, 2, 7
1503510962271,17, -1, -4, -7, -2, 4, 0, 4
1503510962279,-8, -10, -11, -2, 0, -6, -11, -3
1503510962287,-21, 24, 16, -4, -3, -4, -5, -20
1503510962301,17, -7, -2, -4, -1, 1, -1, -10
1503510962309,-8, -10, -7, 0, 1, 2, 0, 10
1503510962316,10, 2, -4, -6, -4, 0, -2, 2
1503510962332,22, 10, 3, -2, 0, -1, 1, 0
1503510962339,-2, 2, -1, -3, 1, 3, 2, 6
1503510962347,-6, 6, 3, 1, -1, -1, -1, 7
1503510962361,-7, -1, 2, 3, 1, 0, 3, 0
1503510962369,-1, -13, -9, -2, -1, -1, -3, -4
1503510962376,7, 3, 0, -3, -2, 0, 0, -7
1503510962392,-2, -6, -3, -2, -1, -2, 2, -20
1503510962399,9, 6, 3, -4, -2, -3, -5, 1
1503510962407,9, 21, -2, 1, -1, -1, -5, -3
1503510962421,36, 7, 2, 0, 1, 0, 0, -3
1503510962429,10, -18, -4, -2, -2, -2, -2, -9
1503510962436,-26, -3, -1, 0, -2, 1, 3, 7
1503510962452,5, -1, -1, 0, 0, -1, -3, 7
1503510962459,6, 10, 7, 0, -1, -2, 1, 5
1503510962467,2, -6, -2, 3, -2, -1, 2, 20
1503510962481,-43, -7, 0, -1, 18, 2, 1, -1
1503510962489,67, 9, -3, -7, -3, 6, 7, 12
1503510962497,-22, -3, -1, 2, 2, -2, 2, 19
1503510962527,-66, -14, -6, 0, 2, -1, -9, -47
1503510962534,29, 6, 5, 1, -6, -4, -2, -13
1503510962536,-37, -8, 6, 1, -6, -2, -6, -18
1503510962541,16, -7, -3, -2, -6, -3, 1, 10
1503510962549,36, 8, 0, 0, -3, -5, 3, 24
1503510962558,-34, -18, -10, -1, -4, 3, 4, -15
1503510962571,-2, -4, 2, -2, 2, 1, -1, 5
1503510962579,-3, 1, -4, -1, -3, 3, -3, 19
1503510962590,-17, 1, 3, 1, -3, -3, -7, -13
1503510962601,-67, -6, -5, -3, -3, -5, -11, -13
1503510962609,22, 8, 3, -2, 2, 0, 0, -9
1503510962617,8, 7, 5, -1, 0, 5, 2, -48
1503510962632,-7, -41, -4, 0, 28, 1, -1, -67
1503510962639,20, 1, 2, -2, 2, -1, 1, -5
1503510962647,-5, 8, 1, 1, 1, 1, 4, 30
1503510962661,32, -7, -5, -3, -5, -5, -6, 24
1503510962669,44, 8, -2, -3, -6, 3, 2, 45
1503510962676,-9, 7, 2, 1, -7, 1, 1, -2
1503510962692,-55, -1, -7, -3, -31, 3, 0, -18
1503510962699,14, 5, -3, 0, 21, 9, 8, 5
1503510962707,-13, 3, -3, -7, -8, -10, -13, -51
1503510962723,-60, -2, 2, 4, 7, -1, -4, -39
1503510962729,-13, 4, -1, 1, 1, 0, 3, 66
1503510962736,7, -23, -1, -1, 1, -2, 0, 11
1503510962751,9, 0, 4, 2, 1, -2, 6, 51
1503510962759,11, 17, 22, 1, -9, -4, -9, 8
1503510962767,-23, -2, 1, 1, 7, 1, 8, 14
1503510962781,27, -5, -5, -1, -8, -3, -7, -16
1503510962791,-8, 2, -3, 2, 7, 3, 2, -15
1503510962797,-4, 7, -5, -37, -10, 5, 5, 9
1503510962811,-21, -9, 2, 0, 3, -22, -12, -27
1503510962819,9, 3, -6, -3, 15, 6, 2, 36
1503510962827,26, 0, -1, -10, 3, 13, 5, -8
1503510962841,39, 7, 2, 1, -6, -6, -2, -41
1503510962849,-50, -6, -3, 1, -8, -6, -8, -78
1503510962858,-10, -30, -13, 10, -4, 2, 0, -8
1503510962871,60, 20, 0, -1, -2, -1, -1, 15
1503510962879,-42, 4, -2, 5, 4, -5, -2, -12
1503510962887,0, -13, -7, -5, 2, 5, 3, 23
1503510962901,0, 2, 0, 4, 3, -1, 2, 18
1503510962909,3, -2, -2, -4, -5, -2, 0, 12
1503510962916,9, 11, 0, 1, -20, -5, -9, -10
1503510962917,-31, 1, -4, -22, -4, 4, 2, 4
1503510962933,7, 2, 7, 19, 10, -18, -10, -2
1503510962939,28, 4, 1, -2, -1, -5, -7, 5
1503510962947,13, -5, -5, -7, -6, 8, -7, -19
1503510962961,0, -1, -4, 5, 1, -3, 1, 12
1503510962969,22, -8, 1, 3, -5, -3, -2, 10
1503510962976,21, 4, 1, 1, -4, -2, 1, 3
1503510962992,-32, 0, -1, 1, 2, 1, 3, 4
1503510963000,0, -1, -1, 8, 1, -2, 4, 11
1503510963007,9, -15, -1, -3, -3, 2, -2, -29
1503510963021,-22, 18, 20, 6, 0, -2, -4, -19
1503510963029,-23, 6, -10, -4, -3, 0, 1, -36
1503510963037,30, 8, -14, -10, 3, -1, 0, 9
1503510963051,30, 6, 15, 5, 9, -1, 3, 15
1503510963059,-24, -11, -23, -7, -4, 0, -2, 6
1503510963068,-6, -5, 1, 1, -4, 0, 0, 19
1503510963081,-12, 0, 3, 1, -2, -1, 0, -23
1503510963082,15, -9, -6, -2, -3, -3, -6, -8
1503510963089,-3, 45, 10, 3, -3, -1, 2, 19
1503510963098,-8, -17, 7, 8, -2, -4, -7, -16
1503510963111,4, 17, -6, -8, 0, 2, 1, 27
1503510963119,-3, 7, 8, 6, -3, 0, 2, -34
1503510963134,-21, -20, -6, -6, -4, 0, -4, -2
1503510963141,-3, -8, 1, 5, -2, -4, -4, 23
1503510963149,23, -6, -7, -4, -4, -1, 6, 18
1503510963164,-5, -2, -2, -1, -4, -3, 0, 13
1503510963171,-26, -13, -4, 0, -2, -2, 3, 25
1503510963179,8, 3, 0, -1, -3, 1, 2, -1
1503510963194,-11, -9, -3, 0, -6, 2, 1, -20
1503510963202,5, 9, 5, 3, -4, 0, 0, 28
1503510963209,-11, 6, 3, 0, 0, -2, 0, -8
1503510963210,12, -5, -2, -3, 4, 6, 3, 4
1503510963223,-18, -1, -1, 0, 0, -4, 2, -31
1503510963232,18, -4, 0, -1, -1, -3, -3, 4
1503510963239,7, 1, 2, 0, -1, 2, 2, 6
1503510963254,-7, 9, 4, 2, -2, 1, 1, -9
1503510963261,12, 12, 0, 1, -1, -1, 3, 16
1503510963270,22, -10, -5, -3, -2, -7, -14, -4
1503510963283,2, -15, -7, -3, -2, -2, 3, -3
1503510963294,-5, 4, 0, 2, 2, 1, 4, -4
1503510963299,7, -4, -1, -2, -1, 2, -2, 1
1503510963314,-2, 8, 2, 0, 0, -1, -2, 6
1503510963321,-6, 3, 0, -2, -1, -2, 1, 26
1503510963330,-3, -5, -2, -1, -1, -1, 0, -19
1503510963332,-11, -6, -2, -2, 0, -1, -2, 7
1503510963343,4, 1, -4, -1, -1, -1, -2, -8
1503510963351,-13, -5, 0, 1, 1, -2, -2, -4
1503510963360,-7, -9, -1, 1, -1, -1, -4, -6
1503510963374,-7, -2, -1, -1, -2, -1, 2, -8
1503510963381,16, 18, 7, -1, 0, 0, 1, -11
1503510963389,-2, -8, -3, -2, -1, -1, -7, -3
1503510963403,-5, -13, -4, -1, 0, 1, -1, -3
1503510963413,-6, -4, -4, -4, -1, -2, 1, -2
1503510963419,-43, -2, 0, 0, -1, -2, -2, -7
1503510963434,-33, -3, -4, -1, 0, 1, 3, -1
1503510963441,10, -4, -1, 0, -1, -1, 0, -6
1503510963449,17, -8, -2, -1, -2, 2, 2, 0
1503510963464,12, -7, -2, -1, -1, -1, -2, 5
1503510963471,-3, -2, -1, -1, 1, 0, 3, -3
1503510963486,-2, -3, 1, -1, 1, 0, -1, -3
1503510963495,18, -7, -2, -1, 0, -2, 0, 5
1503510963501,-22, -1, -1, -1, -1, 1, -1, 0
1503510963510,-2, 4, 0, -1, -1, 0, 1, 4
1503510963523,12, -3, 1, 1, -1, -5, -4, -6
1503510963532,24, 1, 0, 1, -1, -1, -1, 5
1503510963540,3, 1, -4, -4, -1, 1, -1, -2
1503510963554,-1, -6, 28, 8, -2, -1, -1, -3
1503510963562,1, 20, -6, -5, 2, 0, 0, -2
1503510963569,-9, -1, -21, -12, -1, -1, -1, -4
1503510963583,0, -19, 3, 2, 0, 1, -2, -4
1503510963591,-4, 8, 5, 1, 1, 0, 2, 2
1503510963599,8, -8, -7, -3, -1, 0, 4, 9
1503510963614,3, 9, 4, 3, -2, -2, -6, -7
1503510963621,17, 1, -1, 2, 0, -1, -2, 2
1503510963629,-27, 4, -2, 0, -3, -5, -8, -9
1503510963643,5, 5, 0, 0, -2, 1, -2, 1
1503510963652,15, -4, -7, -3, -1, -2, 0, -1
1503510963659,-9, 0, 2, 0, 1, -3, -2, -2
1503510963674,-11, -6, -5, -3, 0, 2, 0, -6
1503510963681,11, 10, 1, 0, -3, -3, -1, -1
1503510963689,3, 6, -7, -3, -2, -2, -1, -5
1503510963703,-16, -3, 3, 1, 0, -1, -2, -17
1503510963711,-9, -1, 2, 0, -1, 0, 1, 3
1503510963719,-2, 7, 3, 0, 0, 2, 3, 3
1503510963734,13, -1, -5, -3, -2, -2, -3, -3
1503510963741,-13, 0, -1, -4, -2, 1, 3, 6
1503510963749,-33, -4, -2, -1, 0, 1, 3, 0
1503510963769,0, -11, -2, 1, 0, -2, -3, -1
1503510963772,14, 2, 1, 0, -1, -1, 1, 7
1503510963779,-27, -2, -3, -4, -4, -3, -2, -2
1503510963794,0, -2, -2, -1, -1, -1, -4, 0
1503510963802,-1, 2, 1, -1, -1, -1, 2, 2
1503510963809,27, -3, -7, -6, -4, -3, -2, -1
1503510963823,-2, -10, -3, 0, -4, -6, -2, -1
1503510963832,-4, 0, 4, 3, 3, 2, 0, -2
1503510963839,9, -1, -5, -4, -3, -2, -3, -2
1503510963854,-15, 1, -2, -4, -2, 0, 1, -1
1503510963861,-1, 2, 1, 2, 3, 3, 4, -2
1503510963869,15, -3, -2, -2, -1, -2, -3, 3
1503510963883,4, 31, 2, 0, -1, -1, -5, -5
1503510963891,-11, 0, 5, 5, 3, -1, -3, -6
1503510963900,11, -10, -3, -3, -2, -1, 0, 3
1503510963914,-11, -2, -1, -2, -2, -3, -1, 0
1503510963921,1, 4, 0, 1, 1, -2, -3, -6
1503510963931,-25, -1, 5, 4, 1, 0, -2, 2
1503510963943,-5, -5, -4, -2, -2, 1, -1, 0
1503510963951,16, 11, 3, 1, 0, 0, 2, 3
1503510963959,0, -4, 8, 6, 2, -3, -3, 1
1503510963974,-3, -2, -1, 0, -2, -1, -4, -17
1503510963980,1, -7, -8, -11, -5, -1, 9, 17
1503510963989,10, -2, -5, -1, -2, -2, 1, 5
1503510964003,7, -3, 2, 5, 3, 4, 3, 0
1503510964011,-20, -3, 3, 2, 1, -1, -2, -4
1503510964019,-10, -3, -1, -2, 0, -1, -5, -9
1503510964034,19, -2, -4, -3, -3, -2, -1, 7
1503510964041,-3, 0, 3, 0, -1, -4, -8, -11
1503510964057,9, -9, -6, -3, -1, 1, 2, 6
1503510964066,-9, -3, -3, -2, -2, 0, 3, 1
1503510964072,-12, -10, -3, -4, -2, -3, -2, 0
1503510964086,8, -10, -11, -4, -4, -2, -1, 2
1503510964094,1, 8, 1, 2, 0, 1, 1, 0
1503510964101,-12, -21, -10, -6, -4, -2, -7, -5
1503510964117,4, 7, -1, -5, -2, 0, 2, -1
1503510964123,4, 4, 4, 4, 3, 0, 0, -1
1503510964133,-1, 3, 3, -1, 1, 0, -3, -9
1503510964146,6, 2, 2, 1, -1, -2, -7, -6
1503510964154,7, -2, -1, 1, -1, 1, 3, 0
1503510964162,-1, 8, 4, 1, 1, -1, -3, -4
1503510964177,-9, -3, -1, 0, -2, -2, -3, -3
1503510964184,-3, 8, 2, -1, 0, 3, 6, 4
1503510964191,-9, -5, 1, 0, 0, -1, -2, -11
1503510964207,14, 9, 12, 3, -2, 1, 2, 4
1503510964214,0, 4, 3, 2, 3, 1, 2, 3
1503510964222,-6, -19, -6, -2, -1, -2, -4, -2
1503510964237,4, 2, 0, 2, 2, 0, 1, 5
1503510964244,5, 3, 0, 1, 0, -1, 2, 1
1503510964251,16, -12, -6, -6, -2, 0, 1, 6
1503510964269,-16, 1, -1, 0, -2, -1, -2, -6
1503510964275,-2, 8, 1, 0, 0, -1, -1, 1
1503510964282,-12, -14, -1, 1, 0, -1, -2, -9
1503510964297,-3, -4, 1, -1, -1, -3, -3, -3
1503510964304,2, -7, -7, -2, 0, -1, -2, -5
1503510964311,11, 2, 3, 2, -1, -3, -5, -3
1503510964336,-8, 10, 1, -1, 0, 0, 0, -4
1503510964349,8, 6, -1, -2, -1, 0, 3, 7
1503510964356,-16, -8, -5, 1, 1, 0, -1, -1
1503510964364,-1, 5, 0, -1, 1, 1, -1, 3
1503510964372,1, -2, 1, 1, -2, -1, -5, -6
1503510964387,19, 23, 0, -3, -1, -1, -1, 0
1503510964394,-15, 2, -2, -4, -4, -1, 0, -2
1503510964410,3, -9, -5, 0, -3, -3, -2, 1
1503510964417,6, -1, -2, -2, 0, -1, -2, 1
1503510964424,17, -10, -1, -2, -1, -2, -1, 2
1503510964431,-23, -6, -6, -3, -4, -1, -1, -2
1503510964447,-4, 0, -1, -1, -1, 0, -2, -1
1503510964454,3, -2, 0, -1, 0, 0, -1, -4
1503510964470,-4, 1, -1, -1, -2, -1, 0, 0
1503510964478,6, -5, -3, -1, -2, -4, 1, 3
1503510964484,-5, 2, 4, 1, 1, 3, 0, -2
1503510964492,5, 1, -2, -3, -3, 1, 2, 4
1503510964507,-8, -5, -1, 0, -1, -1, -1, -2
1503510964517,3, 6, 0, 1, 0, -3, -2, 1
1503510964529,-24, -3, -1, 0, -4, -2, -3, -4
1503510964536,-1, -1, -3, -3, -1, -3, -1, -3
1503510964545,5, -2, -4, -8, -2, -3, -2, 1
1503510964551,-8, -2, 0, -6, -2, -1, -1, -1
1503510964570,14, 4, 4, 8, 1, 0, 0, 3
1503510964574,1, -6, -1, 0, 0, 2, -2, -3
1503510964590,-1, -2, -2, -4, -1, -2, -2, -2
1503510964596,-2, 16, 3, 1, 0, 0, 0, 4
1503510964604,-2, 2, 1, 1, 1, 0, 1, 4
1503510964611,7, 7, -1, -1, 0, -2, -1, -2
1503510964612,-8, -11, -3, -1, 0, -1, -1, -8
1503510964627,15, -1, 0, -1, -1, -2, -1, 6
1503510964636,3, 3, -4, -2, -2, -1, 0, 1
1503510964650,-11, -5, -2, -4, -1, -1, -1, -5
1503510964656,4, 7, 1, 1, 1, 0, -1, -3
1503510964664,1, 2, 3, 2, 0, -1, -2, -1
1503510964671,-4, -4, -2, -2, -1, 0, 0, -1
1503510964672,-1, -8, -2, 0, -2, 0, -1, -1
1503510964687,7, 1, -6, -5, -1, -2, 0, 2
1503510964694,-9, -4, -2, -1, 0, -2, 0, 2
1503510964709,-9, -6, -4, -3, -1, -1, -3, -6
1503510964716,13, -5, 0, 4, -1, -2, -2, 1
1503510964724,-9, -3, -4, -10, -1, 0, -1, -3
1503510964731,16, 1, 2, 4, 0, -1, 0, -1
1503510964747,-2, 2, 2, 1, -2, -3, -2, -3
1503510964754,-12, -4, -3, -4, -1, 0, -1, 0
1503510964772,2, 31, 10, 2, 0, 0, 0, -1
1503510964776,-7, -11, 0, 0, -1, -2, 0, -2
1503510964785,-1, -13, -7, -2, -1, 2, 3, 5
1503510964791,29, 5, -2, -2, -1, 1, 0, 1
1503510964808,-12, -11, -5, 0, -1, -1, -1, -5
1503510964814,-43, -9, -4, -4, 1, -2, -2, -13
1503510964829,-4, -2, 4, 2, -1, -1, -2, 0
1503510964837,13, 5, 6, 4, 0, -1, -1, 5
1503510964844,-4, 0, 0, 9, 0, -1, -2, 1
1503510964859,14, 2, -3, -2, 1, 1, -2, -1
1503510964867,7, -3, -5, -4, -2, -3, -1, 1
1503510964874,-3, -5, 3, -1, -2, 0, -2, -3
1503510964889,-3, -6, -7, -3, -1, -1, -2, -1
1503510964896,4, -2, -4, -4, 0, 0, 0, 2
1503510964907,-19, -8, -3, -1, -1, 0, 0, -3
1503510964911,13, 0, -1, -2, -2, -2, 1, 4
1503510964927,13, -3, -2, -2, 1, 0, -1, -3
1503510964934,-11, 3, -1, 0, 0, 0, -1, -3
1503510964950,-10, 12, 4, -1, -2, 0, 1, 0
1503510964956,-12, 2, -2, -2, -2, 0, -2, -1
1503510964965,10, -7, -4, 9, 0, 0, 0, 1
1503510964980,1, 4, 3, -7, -1, 2, 2, 5
1503510964987,-11, -9, -4, -10, -3, -3, -2, -9
1503510964994,9, -3, 5, 7, 0, -1, -1, 0
1503510965012,-23, 9, 4, -1, 2, 0, -1, -5
1503510965017,9, 3, 0, 0, 1, -5, -4, -3
1503510965024,4, -11, -3, 1, -1, -4, -3, 2
1503510965040,24, 4, -7, -5, -2, 1, -1, 0
1503510965041,-29, 6, 1, 0, -3, 0, 1, 1
1503510965048,-7, -2, 1, -2, -1, -1, -3, -5
1503510965054,12, -4, -4, 2, -1, -1, -5, -8
1503510965069,-7, 1, -1, 1, -1, -2, -2, -2
1503510965070,19, -1, 1, -4, -1, -2, 4, 7
1503510965078,-16, -14, -8, 3, 1, 0, 1, -5
1503510965085,19, 4, 3, -8, 0, 0, 2, 3
1503510965099,-12, -3, 0, 0, 0, -1, 2, -1
1503510965107,8, 15, 2, -2, -1, -2, 0, 5
1503510965114,-6, -1, 4, -5, -1, 1, 0, 0
1503510965115,23, -1, -2, -2, -1, -1, -1, -1
1503510965129,-6, -8, -5, -1, -2, -2, -4, -6
1503510965136,-8, 11, -3, -1, -1, -2, 1, -1
1503510965146,-31, -4, 8, 5, -1, 2, -2, -3
1503510965159,8, 3, 1, -1, -1, -1, -1, 3
1503510965167,8, 5, -7, -2, -2, 1, 1, -1
1503510965174,-23, -7, -4, -4, -2, 1, 1, 0
1503510965189,39, -2, -1, -2, 0, -1, -2, 5
1503510965196,9, 2, 1, -1, 0, -2, -3, -3
1503510965207,-2, 1, -1, 9, 1, 0, 1, 3
1503510965219,15, -4, 5, 2, 0, -2, -2, 0
1503510965227,-41, -11, 0, -5, -1, -2, -1, -10
1503510965234,13, 10, 4, 1, -2, 0, -3, -1
1503510965250,22, 2, -2, -7, -1, 0, 0, 1
1503510965256,-31, -17, -2, -4, 0, 0, 0, 0
1503510965264,-3, 1, -4, -4, -2, -2, -3, 2
1503510965279,1, 14, 2, -2, -1, 0, -1, 2
1503510965287,-12, -24, -8, 0, 0, 1, 1, -5
1503510965294,17, 7, -2, 0, -2, -2, -4, -2
1503510965310,-3, 11, 3, 4, 1, 0, -2, 0
1503510965317,11, 8, -3, -3, 0, -1, 0, 0
1503510965324,6, -7, -5, -2, -2, -1, -3, 0
1503510965341,-29, -12, -2, -1, 0, -1, 0, -7
1503510965347,21, 7, 4, 0, 1, -1, 2, 4
1503510965354,-2, 1, 3, 1, 3, -1, -1, 3
1503510965370,-15, -1, 0, 1, 0, 0, 2, 0
1503510965378,12, -7, -6, 0, -1, 1, 3, 6
1503510965385,3, 4, 2, -1, 0, 0, 0, 4
1503510965399,-5, -1, 2, 1, -2, 0, -1, 0
1503510965410,18, 6, -3, 0, -1, -2, -1, -1
1503510965414,-18, 0, -2, -1, 0, 0, -2, -7
1503510965429,-4, -20, -6, -1, 0, 0, -2, -1
1503510965437,-1, 0, -1, -3, -2, 0, -1, -4
1503510965444,14, -6, -9, -4, -2, -2, 0, 0
1503510965459,-27, -17, -5, -2, -2, -2, 0, -3
1503510965467,14, 4, 3, 2, -1, 0, 0, 3
1503510965475,17, -1, -2, -6, -3, -1, 1, 2
1503510965489,-12, 2, -3, 9, 0, -2, -1, -1
1503510965496,-1, -1, 2, 3, -3, -3, -5, -3
1503510965505,-12, 6, 4, -4, -1, 0, -1, -3
1503510965519,17, -3, 1, -2, 2, 0, -1, 2
1503510965527,-5, 12, 2, -4, -2, -4, -1, 0
1503510965534,-3, -5, -3, -1, -2, -1, -1, -3
1503510965551,1, -1, 1, -1, -1, -1, 0, -6
1503510965556,-1, 1, -2, -1, 0, 0, 1, 0
1503510965564,13, -13, -3, -3, -1, 0, -4, -4
1503510965579,13, -1, -6, 0, -2, -1, -3, 3
1503510965587,-1, -31, -7, -3, -1, -1, -2, -1
1503510965594,-3, 0, -6, -2, 2, -1, 3, 5
1503510965611,-14, 2, -2, 0, 0, -2, 0, -3
1503510965617,-8, 5, 2, 0, 1, -1, 3, 0
1503510965624,-29, 5, 0, -1, 0, 1, 1, -2
1503510965639,3, 2, 0, -3, -2, -1, -3, -5
1503510965647,8, 9, 1, 1, -1, 0, 0, -2
1503510965654,-15, -2, 0, -2, -1, 0, -2, -2
1503510965670,-5, 10, 4, -3, -1, -1, -1, 3
1503510965677,-12, -7, 1, -3, 0, 1, -1, -7
1503510965685,4, 3, 0, -1, -1, -1, -3, -12
1503510965699,13, 0, -1, -1, -1, 0, 0, 0
1503510965707,0, 3, 4, -3, -1, 1, 0, 5
1503510965714,-1, 9, 0, 3, 1, -2, -3, -2
1503510965729,-7, -20, -11, -2, 0, -1, 1, 5
1503510965736,1, 6, 3, -1, 0, -1, -1, -1
1503510965744,8, -4, 0, 0, -1, -2, -1, -2
1503510965745,-1, 1, -3, 2, -2, -2, -2, 1
1503510965759,36, -7, -3, 1, 0, 0, -2, -1
1503510965767,-6, -1, 1, 1, 0, 0, 0, -7
1503510965774,2, 3, 2, 0, -1, -1, -1, 1
1503510965789,-9, 5, 3, 1, 0, -2, -2, -2
1503510965796,-4, -2, -3, 6, -1, 0, 2, 1
1503510965804,-25, -5, -1, -1, 1, 0, -1, -3
1503510965805,5, 6, 3, 3, 2, 2, 0, 1
1503510965819,-3, -8, -1, -4, 0, -1, -1, -1
1503510965827,7, 3, 1, -3, -1, -1, -3, -4
1503510965834,-8, -4, 0, -1, -1, -1, -2, -1
1503510965849,33, -5, -10, -2, -2, -1, -1, 3
1503510965856,1, -11, -6, -1, 0, -2, -1, -1
1503510965864,17, -3, 3, 0, 0, -1, 1, 2
1503510965879,-33, -3, -3, -1, -3, -2, -1, -9
1503510965888,-3, 3, 1, -1, -4, -2, -3, -1
1503510965894,-5, -2, 2, -1, 0, -2, -1, 2
1503510965912,5, 5, 3, 0, 0, 2, 1, -1
1503510965917,9, 5, 0, 1, -1, 0, 0, 2
1503510965931,14, 2, 1, -2, 0, 0, 0, 1
1503510965939,11, 1, 0, -4, -1, 0, 1, 3
1503510965947,-11, -4, -1, -2, -1, 0, -2, -4
1503510965961,-11, 5, -6, -3, -2, -1, -3, -7
1503510965969,-20, -15, -5, -1, 0, -2, -1, -2
1503510965982,20, 12, 2, 0, -1, -1, 1, 3
1503510965991,17, -6, -3, 0, 0, 1, 1, -3
1503510965998,-6, 1, -5, -2, -1, -1, 0, -2
1503510965999,-11, -3, -2, 1, -1, -1, -2, -2
1503510966018,-7, -10, 1, 1, -2, 0, -1, 0
1503510966021,18, -4, 0, -1, -1, -2, -2, 1
1503510966022,-5, 2, 2, 0, -1, -1, -3, -1
1503510966036,-12, 6, -2, -3, -1, 0, 0, -4
1503510966037,-1, -3, 0, 0, -3, 2, 0, 4
1503510966051,-30, 5, -1, -2, -2, -3, -2, -5
1503510966059,4, -9, -2, 4, 3, 1, 1, 3
1503510966067,3, 7, 2, -1, -3, -1, 0, 0
1503510966083,1, -3, -2, -2, 0, 2, 1, 5
1503510966089,-28, 1, -2, -2, 0, -3, -2, -6
1503510966096,8, -2, -1, -2, -2, -1, -2, -4
1503510966114,15, 2, 2, 1, 1, 1, 1, 11
1503510966119,-9, 6, -1, -4, -2, -1, -1, -1
1503510966127,-21, 36, 24, 5, 1, 1, 1, -2
1503510966141,1, -10, -1, -2, 0, -1, 1, -1
1503510966151,14, -3, 31, 23, -2, -3, -3, -1
1503510966157,-1, 1, -6, -1, 1, 0, 0, 0
1503510966171,6, -13, -25, -16, -5, 1, -1, -2
1503510966180,6, -2, 3, 20, 2, -2, -3, -1
1503510966187,5, 0, -6, -2, 0, 0, 0, 0
1503510966201,-4, -4, -4, -11, 0, 0, 0, -6
1503510966209,12, 7, 1, -4, -1, -2, -1, 7
1503510966216,1, 1, -1, -5, -2, -1, 0, 4
1503510966231,-1, -14, -13, -4, -2, -3, -3, -5
1503510966239,5, 3, 6, 2, 0, -1, 0, 1
1503510966249,-5, -2, -5, -1, -1, 0, -2, -2
1503510966261,-8, -2, 1, -2, -2, -1, -3, -7
1503510966269,-23, -2, -3, -2, 1, -2, 0, -5
1503510966276,16, 8, 0, -1, -1, 0, 0, 3
1503510966291,1, -7, -3, 0, 0, 0, 0, -3
1503510966299,-10, 1, -2, -5, -1, -1, -1, 0
1503510966307,-1, -11, -2, 1, 0, -2, -1, -1
1503510966321,4, 0, 2, -1, -2, -1, -3, -1
1503510966329,7, 3, 1, -3, -2, -1, 0, 4
1503510966336,3, -3, -2, -1, -1, -2, 1, 4
1503510966351,-13, 0, -1, -3, 0, -1, 0, 1
1503510966359,-10, -4, -3, 1, 0, 1, 0, -5
1503510966367,12, 8, -3, -3, -2, -2, -3, 3
1503510966383,12, -5, -5, 0, -1, 0, 1, -4
1503510966390,4, -5, -4, 0, 1, 0, 0, 0
1503510966396,0, -2, 10, 0, -2, 0, -1, -2
1503510966411,-12, -13, 0, 0, -1, 1, 1, -1
1503510966419,1, -2, -2, 0, 0, 0, 1, 0
1503510966427,-4, -28, -4, -1, 0, 1, -2, -5
1503510966441,-11, 1, -2, -3, -2, -2, 0, -3
1503510966449,-12, 12, -1, -1, -1, 1, 2, -1
1503510966457,0, 1, -2, 0, 0, 0, 2, 6
1503510966472,7, 1, -2, -1, 0, -2, 0, -1
1503510966479,-30, 0, -1, 0, 0, -1, -1, -5
1503510966487,11, 9, 3, -1, -2, -1, -3, 0
1503510966501,0, 0, -3, -2, 0, -1, -1, -4
1503510966509,10, 11, 2, -2, -1, -4, -2, -2
1503510966517,-41, -3, 1, -2, -1, -1, -3, -6
1503510966531,7, 7, -3, 2, -1, 0, 1, -1
1503510966540,13, -16, -9, -1, -2, -2, -1, 3
1503510966547,-9, -2, -3, 0, -2, -1, -1, 0
1503510966561,6, -3, -1, 1, 0, 1, 1, 0
1503510966569,2, -9, -2, -3, -2, -1, -1, -4
1503510966576,15, 10, 2, -3, 1, -1, 1, 1
1503510966591,1, -1, -2, 0, -1, -1, -1, 1
1503510966599,-14, 3, 1, 1, -2, -1, -2, -4
1503510966607,3, 3, -1, -1, -1, 0, 0, -1
1503510966621,-8, -9, -2, -5, -1, -2, -3, -6
1503510966629,-14, -1, 1, 1, 1, 1, -1, 1
1503510966636,15, 8, 9, 2, 0, -1, -1, 2
1503510966651,11, 2, -1, 0, 1, 0, 2, 3
1503510966659,-4, 8, 2, 1, 0, -1, -1, -1
1503510966667,8, 4, 0, 1, -1, 0, 0, 1
1503510966683,3, -3, -3, -2, -2, -1, -1, 4
1503510966689,-7, -5, -4, -2, -2, -1, -2, -1
1503510966696,-9, 2, 0, 0, 0, -1, 0, 1
1503510966711,2, -8, -1, 0, -1, -2, -2, -4
1503510966720,-8, 5, -4, -2, -1, 0, 1, 4
1503510966727,-18, 2, 2, -1, 0, -2, -1, 0
1503510966741,4, -4, -3, -1, 0, -2, -1, -3
1503510966751,-8, 3, 0, -1, 0, -1, -1, -2
1503510966756,-3, 0, -3, -3, -2, 0, -3, -2
1503510966771,9, -3, 0, -2, 0, -1, -1, 3
1503510966779,8, -4, -2, 0, 1, -2, 0, -3
1503510966787,2, -10, -9, -3, -3, -1, -1, -3
1503510966801,9, -9, 0, -1, -2, 0, -2, -5
1503510966809,-6, 3, -2, 0, -3, -1, -1, -4
1503510966818,-19, -3, -4, 0, -1, -2, 2, -1
1503510966831,-6, 0, 3, -1, 0, -2, -1, -1
1503510966839,-9, 1, 0, -1, -1, -1, -1, 0
1503510966854,0, 10, 2, -1, 0, 1, 0, 1
1503510966861,13, -5, -4, -2, -1, -1, -2, 1
1503510966869,5, -5, -3, 1, 1, 0, 1, -1
1503510966885,8, 4, 1, 0, -1, -2, 0, -2
1503510966891,-21, -1, 1, 0, 0, 1, -2, -1
1503510966899,4, 0, -1, 1, -1, -1, 0, 3
1503510966914,-12, -4, 0, 0, -3, -1, -1, -2
1503510966922,-15, -1, -4, -2, -1, -1, -4, -2
1503510966929,-6, 0, -1, -2, -2, -2, -1, -2
1503510966943,2, 3, 2, 0, 0, 1, 0, -3
1503510966952,-15, -6, -1, -3, -2, -2, -3, -4
1503510966961,10, 11, -4, 0, -2, -2, 1, -4
1503510966974,15, 3, -3, -1, -3, -3, -2, -5
1503510966981,2, 0, -2, -1, -2, 1, 0, 1
1503510966989,15, -1, 1, 0, 1, 1, 0, 0
1503510967003,25, -3, -1, -2, -1, -2, 0, 4
1503510967011,-10, -9, -3, -3, -1, -1, -1, -4
1503510967019,-6, 4, 5, 1, -2, -1, 1, -1
1503510967034,2, 0, 1, 0, 0, 1, 0, -1
1503510967041,-8, -8, -3, 0, -3, -1, 0, 1
1503510967049,22, 3, 2, -1, 0, 0, 1, 2
1503510967063,-38, -10, -4, -1, 0, -2, -4, -14
1503510967071,2, -2, -1, 0, -1, -3, -2, 2
1503510967079,1, 1, -2, -2, -1, -1, -1, 4
1503510967095,1, -1, -2, -2, 0, 0, 1, 0
1503510967101,-4, -5, -1, 0, -1, 0, -1, 2
1503510967110,-10, 0, -2, 1, -2, 0, 1, 2
1503510967123,-5, -3, -2, -2, 0, 0, -2, 0
1503510967131,4, -1, -1, 0, -1, 0, -1, -2
1503510967139,-3, -1, -1, -2, -2, 0, -2, 0
1503510967154,15, 0, 0, -1, 0, 0, 0, -2
1503510967162,25, 0, -2, -1, -1, 0, -2, 4
1503510967169,-20, -5, -5, -1, -1, -2, -4, -6
1503510967183,20, -3, -1, -1, -1, -2, 0, 0
1503510967191,21, 11, 8, 1, 0, -1, -1, 0
1503510967199,-10, -6, 2, 1, 0, -2, 0, 0
1503510967214,7, -3, -4, -3, -2, -1, -4, 1
1503510967221,-4, -7, -3, -1, 1, 0, -2, -1
1503510967230,-7, 0, 1, 0, 0, 1, 2, 2
1503510967243,11, 1, 4, 2, 0, -2, 0, -1
1503510967251,-7, -7, -4, -3, -1, -2, -1, -3
1503510967259,4, 5, 2, 0, 1, -1, 0, -1
1503510967274,-9, -3, 0, 1, 0, 0, -2, -3
1503510967281,-18, -2, -3, -2, -2, -1, -2, -7
1503510967297,-3, -7, -2, -1, -3, -1, -1, -5
1503510967303,7, 4, -4, -1, -1, 0, 1, 2
1503510967311,1, -4, -3, -1, -1, -2, 0, 1
1503510967326,3, -3, 2, 0, 1, -2, -4, -6
1503510967334,9, 8, 0, 0, -1, -1, 0, 6
1503510967341,-13, -13, -5, -2, -1, -2, 0, 0
1503510967349,-4, 8, 4, -1, -1, 0, 3, 4
1503510967364,4, 10, 7, 1, 1, -1, 0, 1
1503510967371,5, 2, -1, -1, -1, -1, -1, 3
1503510967379,-7, -7, -8, -2, -2, -1, 0, 0
1503510967394,9, 0, 0, 1, -1, 1, 0, -5
1503510967401,-7, -2, -1, -2, -2, 1, -2, -1
1503510967409,-6, -2, -1, -3, -2, 0, -2, -2
1503510967423,2, 5, 3, 0, -1, -1, -1, 1
1503510967431,-7, -6, -1, 0, -2, -1, -3, -9
1503510967439,-2, 9, -2, -3, -2, -1, -1, -1
1503510967456,-9, -4, -1, -3, -1, 0, 0, -1
1503510967461,13, 1, 1, 0, 1, 0, -1, -1
1503510967469,9, 2, -3, 0, 0, -1, -1, 3
1503510967483,3, -2, -3, 0, 0, 2, 0, 2
1503510967494,3, -13, -4, 0, 0, -2, -3, -6
1503510967499,-5, 0, 1, 1, 0, -1, -2, 0
1503510967514,-15, -6, -1, -1, 0, 0, 1, 6
1503510967523,25, 22, 4, -1, 0, -2, -1, 0
1503510967529,-33, -7, -3, -1, -1, -1, -2, -6
1503510967543,-11, -6, -3, -3, -3, -1, 3, -3
1503510967551,14, 3, 1, 0, -1, -3, 0, 1
1503510967559,22, -4, -3, -2, -1, -1, -3, 0
1503510967574,3, 2, 0, -2, -1, -2, -1, -4
1503510967581,0, -4, -2, -1, -1, 2, -1, -1
1503510967594,-3, 2, -2, -1, -2, 1, -1, 1
1503510967603,23, -8, -5, 0, -1, -1, -3, 0
1503510967611,-8, 6, 4, 2, -1, -1, -1, 4
1503510967619,-26, -6, -5, -2, -2, -2, -1, -7
1503510967634,9, 2, -4, -1, -1, 0, 2, 1
1503510967641,-2, -2, -2, -3, 0, -1, 1, 0
1503510967649,-16, -3, -3, 0, 0, 0, -1, -4
1503510967663,-5, -5, 1, 1, -1, -1, -2, 0
1503510967671,5, -3, 1, -4, 0, -2, -1, -2
1503510967679,9, 3, 2, 0, 1, -1, 0, -2
1503510967694,1, 0, -3, -3, -3, -3, -3, -2
1503510967701,14, 10, 3, -1, -2, -3, -1, 1
1503510967709,6, -4, -2, -2, 0, 1, 0, -1
1503510967725,-10, 0, 0, -1, -1, 0, 0, 0
1503510967732,-6, -1, 1, -1, -3, -1, -2, -3
1503510967739,-17, -6, -1, -1, 1, -2, -2, -2
1503510967754,1, 1, 1, 0, 0, 1, 1, -1
1503510967761,13, 0, -1, -1, -1, 0, -2, 0
1503510967777,-17, -1, -2, 1, 1, 0, 0, -2
1503510967784,-5, -5, -1, -2, -3, 0, -1, -3
1503510967792,22, 3, -1, 0, 0, -1, 0, 1
1503510967805,-3, -6, -1, -1, 1, 0, -2, -2
1503510967814,7, -1, 0, 0, -1, -1, 0, 2
1503510967821,-23, -5, -2, 0, -1, -5, 0, -5
1503510967837,-8, -4, 0, 0, 2, 1, -2, -3
1503510967844,32, -2, -4, -3, -3, -1, -1, 4
1503510967852,-6, -1, -1, 0, -1, 1, -1, -6
1503510967865,4, -6, 0, 0, 0, 1, 0, -4
1503510967866,-5, 4, -4, 0, -1, -1, 2, 5
1503510967874,3, -2, -2, -2, 0, -2, -2, 0
1503510967881,-9, 2, -1, -3, -1, -1, -2, -3
1503510967897,-18, 3, 3, 0, -1, -2, 0, -1
1503510967904,-11, -4, -1, 2, 0, 0, 0, -2
1503510967912,18, 4, -2, 0, 0, 0, 1, 2
1503510967927,-4, 1, 0, -1, -1, -1, 1, 10
1503510967934,6, -1, -2, -1, 0, 0, -1, 1
1503510967941,14, -3, -2, -2, 0, 0, 0, 0
1503510967956,-42, -5, -1, -1, -3, -6, -7, -32
1503510967964,-1, -2, 0, -1, -1, -1, -2, 5
1503510967972,26, 3, 1, -1, 0, 1, 3, 9
1503510967985,-20, -8, -2, 0, -2, 1, -1, -20
1503510967994,8, 1, 0, -2, -2, -1, 0, 6
1503510968001,-1, 3, -3, 1, -1, 1, 1, 0
1503510968016,2, -2, 0, -2, 0, -2, 0, 7
1503510968024,-14, -4, 2, 0, -1, -1, -2, -4
1503510968032,-3, 4, -4, 0, 0, -2, -2, -2
1503510968046,-1, 5, 0, 0, -1, -1, -6, 0
1503510968054,15, -6, -2, 0, 0, 0, 5, 6
1503510968061,-6, -7, -1, -2, 0, -3, -2, -1
1503510968076,-10, -7, -2, -3, -3, -2, -4, 14
1503510968084,2, 4, -2, 0, -1, 0, 2, -1
1503510968093,-7, 5, 6, 1, -2, 0, -2, -16
1503510968106,1, -2, 1, -1, -1, -1, -1, 10
1503510968114,9, -4, -1, 1, 0, 0, 0, -1
1503510968121,-4, 1, 1, -1, 0, 0, -2, -12
1503510968136,-9, 2, 0, 0, 0, 1, -2, -1
1503510968144,-30, 6, 0, 1, -1, 0, 0, -8
1503510968152,4, -3, -1, -1, 0, 0, 0, 0
1503510968166,-10, -3, 4, 0, 1, -3, -2, -20
1503510968174,0, -7, 1, 0, -1, -2, -7, -34
1503510968181,-2, -16, -8, -1, -2, -4, 0, 2
1503510968196,18, -2, -5, -3, -1, -1, 0, 23
1503510968204,20, 5, -1, -2, -1, 0, 1, 9
1503510968212,4, -1, -3, -1, -1, -1, -6, 2
1503510968228,8, 0, -3, 0, -1, -1, 2, 4
1503510968234,-11, 2, 0, -3, 2, -3, 1, 1
1503510968241,7, -4, -3, -1, 0, 1, 0, 4
1503510968256,-20, -1, 0, -1, 0, 0, 0, 2
1503510968264,9, 1, 1, -2, -1, -1, -2, 2
1503510968272,-4, 3, 0, -1, -1, 1, 1, -2
1503510968285,1, 5, 3, -1, 0, 0, -2, -1
1503510968296,-17, 12, -2, 0, -2, 0, -1, -3
1503510968301,1, -7, 1, 1, 0, 0, -3, -2
1503510968316,-15, -13, 2, 1, 0, 0, 1, -12
1503510968323,-16, -4, -2, 0, -3, -2, -3, -4
1503510968331,16, 5, -1, 0, -1, 1, 0, 5
1503510968345,-4, -4, -2, -2, 1, -1, 5, -1
1503510968354,-1, -1, 2, -1, -1, -4, -9, -15
1503510968362,-14, -2, -5, -1, -2, -3, -4, -1
1503510968376,-10, -4, 1, 0, -1, 1, 3, 3
1503510968383,-7, 33, 12, -1, 0, 0, 1, -1
1503510968391,-12, -16, -3, -3, 0, 0, 2, 8
1503510968405,-6, -9, -4, -1, 0, 0, -1, -2
1503510968413,22, 8, -1, 2, 1, 0, -2, -4
1503510968421,7, 3, 17, 6, 0, 1, 1, 1
1503510968437,-3, -7, -8, -3, -4, -3, -3, 9
1503510968443,8, -8, -4, -2, -2, 1, 8, 27
1503510968451,20, 23, 0, -4, -2, 0, 1, 5
1503510968465,16, 31, 0, -4, 0, -5, -15, -14
1503510968474,0, -7, 1, -2, -1, -3, 3, 9
1503510968481,25, -22, -10, -1, -3, 0, 2, 1
1503510968497,18, 5, -1, -1, -2, -3, 1, -11
1503510968504,-29, -8, -5, -1, 2, 3, 4, 3
1503510968517,-18, -24, -6, 0, -1, 1, 1, 11
1503510968525,-9, -1, -2, -2, -2, 0, -2, -2
1503510968534,27, 32, 7, 1, -2, 0, 0, 8
1503510968541,11, -25, -5, 1, 1, 1, -1, 0
1503510968556,-40, 3, -1, -3, -2, -2, -1, -2
1503510968570,-18, -10, -5, -3, -4, -2, -4, -3
1503510968574,21, 5, 1, -1, 0, -2, 0, 10
1503510968585,13, -14, -6, 15, -4, -10, -4, -1
1503510968594,13, 2, 0, -7, -1, 5, 1, -11
1503510968603,15, 9, 2, -9, -3, 1, -3, -10
1503510968616,-15, -11, -5, 1, 1, 6, 3, 7
1503510968624,0, 12, 2, -1, 1, 0, -1, -11
1503510968632,-4, -14, -2, -3, 1, 0, 5, 11
1503510968645,-11, 7, 3, 2, 1, -1, -2, -5
1503510968654,15, -10, -5, -1, -2, -7, -7, -6
1503510968661,-4, -9, -7, 2, 1, 0, -1, 0
1503510968665,-18, 10, 11, -1, 1, 4, 4, 11
1503510968676,-22, 4, -1, 4, 0, -1, -4, -26
1503510968683,-9, -12, -4, 3, 0, 1, 3, 3
1503510968684,56, -6, -10, -7, -3, -2, 0, 0
1503510968692,-12, -4, 0, 3, -2, -5, -4, -13
1503510968706,12, -1, -9, -4, -3, -2, 2, 4
1503510968713,6, -9, -5, -1, -1, 0, 0, 13
1503510968728,-10, -2, 2, -3, 1, -2, -2, 1
1503510968736,-1, -1, 1, 14, -1, -4, 1, -9
1503510968743,-8, 1, -1, 13, -2, 0, -3, -2
1503510968759,-6, -6, -1, -5, 2, 0, -2, -2
1503510968765,-8, 2, -2, 0, 1, 2, 2, -1
1503510968774,30, -1, 0, -2, -2, 0, -5, -8
1503510968788,-6, -2, -1, -9, -2, -9, -4, -5
1503510968799,-47, -5, 7, -3, -2, -5, -7, -24
1503510968804,16, 11, 1, -2, 0, 0, 4, 9
1503510968819,16, 22, 5, -3, 1, 0, -1, -3
1503510968825,-42, -2, -2, -1, -1, 0, -1, -3
1503510968834,21, 15, 2, -1, -1, 2, 2, 11
1503510968848,33, -1, -3, -1, 0, 1, 1, 11
1503510968856,-24, -21, -7, -1, 8, 0, 3, 5
1503510968867,-7, -3, 0, -3, -2, -5, -2, -2
1503510968879,17, 0, -4, -2, -1, -1, 1, 6
1503510968885,4, -9, 0, -2, 3, 23, 6, -15
1503510968894,-14, -14, -1, 2, -2, -4, -4, -32
1503510968908,-78, 7, -2, -4, -5, -6, -6, 29
1503510968916,-13, -28, -11, -4, -2, 4, 9, 10
1503510968924,24, 24, 27, 5, 2, 0, -7, 2
1503510968939,-16, -29, -8, -1, -2, -4, -6, 9
1503510968945,44, -8, 0, -1, 0, -2, 9, 13
1503510968953,-32, 10, -1, 1, 0, -3, -4, -33
1503510968954,8, 6, -3, 0, -4, -1, 1, 45
1503510968968,13, -3, -11, -2, -2, -5, -5, -13
1503510968976,24, 49, 15, 1, -2, 2, -2, -11
1503510968983,-17, -9, -1, 1, 1, -1, 1, -15
1503510969000,-5, 18, 19, 3, 1, -1, -5, -16
1503510969005,21, 1, -3, -4, -2, -7, -1, -6
1503510969014,-41, -7, -5, -2, 1, 0, 1, -22
1503510969028,-38, -5, -3, 1, 2, 1, 5, -12
1503510969036,38, -2, -4, 0, 0, -2, 0, 1
1503510969044,-13, -5, -2, 2, -4, 3, -1, -39
1503510969059,11, 1, -3, -2, -10, -7, -4, 8
1503510969068,-4, 0, 1, -2, 0, 1, 4, 23
1503510969074,11, -2, -4, -2, 2, 3, 2, -3
1503510969088,-79, -7, -7, -3, 1, -7, -15, -27
1503510969096,11, 10, -1, -1, 0, -2, 0, 13
1503510969104,32, 6, -1, 2, -4, -2, -2, 9
1503510969119,-18, -11, -6, -4, -1, 0, -6, -30
1503510969125,20, -24, -7, -4, 4, -4, -4, 12
1503510969135,17, -1, 0, -2, 1, 0, 7, 19
1503510969148,-24, -8, -3, 0, -1, 0, 3, 0
1503510969156,7, 2, 1, 0, 1, 2, 1, -16
1503510969164,-21, -1, -3, -2, -6, 9, 1, -35
1503510969179,-57, -13, -4, -3, -12, -13, -5, -12
1503510969185,23, 7, 5, 0, 4, -4, -10, 1
1503510969194,-7, -5, -6, -2, -16, 14, -8, -2
1503510969208,10, 3, -2, -5, 4, 7, 6, 13
1503510969216,61, -1, 2, 29, 2, 3, 9, 18
1503510969224,31, 6, -2, -1, -3, -5, -9, 10
1503510969239,20, 4, -3, -21, -53, -3, 0, 5
1503510969245,12, -3, 0, 0, -15, -7, 8, -5
1503510969253,-28, 24, 6, -2, 28, 4, -6, -3
1503510969270,-36, 4, -1, 2, 4, -2, -3, 7
1503510969277,9, -12, -8, -28, 5, 0, 3, 7
1503510969283,3, -15, -2, 40, 13, -6, -2, -5
1503510969299,-11, -13, -3, 4, 3, -3, -6, -4
1503510969306,3, 44, 19, -12, -2, 0, 4, -7
1503510969314,34, -12, -3, -6, 7, -4, -4, -30
1503510969328,-3, -17, -6, 1, -2, -2, 0, 0
1503510969337,5, 3, -6, -6, 9, -1, -2, -19
1503510969344,8, 33, 4, -4, -7, -1, 1, -2
1503510969359,30, -15, -15, 4, 5, 2, 1, 10
1503510969365,-23, -23, -11, -13, -2, -2, -1, 16
1503510969374,-37, 22, 10, 9, 2, -1, 7, 15
1503510969388,-15, 6, 2, -8, 0, 0, -4, 13
1503510969396,-33, -2, 4, 6, 2, -1, 0, 6
1503510969404,-1, -19, 0, -10, -1, 9, 7, 11
1503510969419,-4, 2, 6, -1, -2, -18, -6, -6
1503510969427,21, -19, -10, -5, -2, -1, 4, -1
1503510969434,17, 17, 10, 2, 1, 4, 0, 4
1503510969449,18, -7, -2, -1, -1, 3, -2, 0
1503510969456,-11, -1, 4, 2, 0, -5, 1, 1
1503510969472,6, -10, -2, 1, 0, -3, -8, -23
1503510969479,-23, 4, -2, -1, 0, 2, 2, 10
1503510969487,27, -3, 3, 0, 1, -4, 2, 49
1503510969494,-2, 7, 0, -4, 1, 6, -1, 5
1503510969509,-7, -1, -2, -1, -1, -3, -1, -22
1503510969516,8, -7, -5, 0, 0, -1, 0, 9
1503510969532,-2, 3, 1, 4, -2, -1, 2, 11
1503510969539,14, -2, -5, -44, -3, 4, -6, 9
1503510969547,16, -1, 5, 11, 3, -1, -2, -2
1503510969554,19, -14, -2, 7, 3, 2, 0, 11
1503510969570,0, 5, -3, -22, -1, 1, -2, -1
1503510969571,-12, 4, 6, -4, -3, -4, -5, -9
1503510969576,-9, 14, 12, 5, 2, -3, 0, -1
1503510969592,41, 8, -4, -2, 1, 2, 0, -13
1503510969599,-29, 30, -2, 10, -1, -4, -6, -41
1503510969607,-59, -41, -9, -6, -2, -1, -6, -59
1503510969614,1, -83, -18, 12, 0, 0, -1, -15
1503510969629,14, 5, 3, -4, -1, -4, 1, 68
1503510969644,-32, 20, -2, 1, -2, -2, 1, -44
1503510969652,-17, 8, 4, 1, 1, -3, -5, 0
1503510969658,-20, -15, 0, 2, -2, 4, -2, 15
1503510969672,-14, 11, -4, -1, -4, -4, -1, -14
1503510969719,-45, -4, -1, -1, -5, -12, -8, -8
1503510969720,-19, -26, -3, 1, 4, 5, 9, 18
1503510969726,-44, -19, -11, -5, -7, -8, 1, 9
1503510969727,-54, -5, 0, 1, -1, 0, 0, -15
1503510969734,46, 8, 9, 0, 0, 3, 0, 18
1503510969741,70, 15, -6, -1, -2, -4, -2, 10
1503510969756,-13, -43, -22, -6, -12, 0, 1, 5
1503510969757,36, -10, 1, -3, -5, 0, 14, 93
1503510969772,25, -24, -6, 1, 21, -1, 0, 15
1503510969779,6, 26, -2, 3, 3, 1, -2, 34
1503510969787,-15, 5, -10, -2, -5, 1, -4, -35
1503510969801,18, 15, 4, 1, -1, -1, 5, -3
1503510969810,-25, -9, -2, 2, 5, 6, 7, 24
1503510969816,-15, 11, 9, 1, -8, -7, -17, -13
1503510969832,-49, -15, -6, -3, -11, -4, -7, 20
1503510969840,58, 39, -1, -3, 0, -2, -1, -30
1503510969854,5, 20, 7, 1, 0, 3, 3, -44
1503510969861,10, -1, -1, -2, 1, 2, 4, -38
1503510969876,23, 2, 1, 0, -3, -1, 4, -39
1503510969877,-11, -5, -4, -4, -1, -2, -4, -31
1503510969892,-30, -21, 5, 1, -1, -5, -12, -30
1503510969899,-46, -11, -2, -1, -2, -2, 2, 38
1503510969915,-8, -7, -1, 3, 3, 2, -4, -11
1503510969921,-3, -20, 0, -1, -2, 1, 2, 31
1503510969929,-13, 4, -1, -6, -2, -2, 0, 25
1503510969936,4, -7, 0, 0, 2, 2, 0, -5
1503510969952,47, 0, -3, -1, -1, -1, -2, 6
1503510969958,-3, -16, -7, -2, -2, -6, -11, -26
1503510969967,16, -4, -1, -1, -1, -3, 1, 2
1503510969982,23, 1, -1, 0, 1, 1, 4, 0
1503510969989,25, -7, -9, -4, -2, -2, -7, 8
1503510969996,15, -4, 1, 4, 0, 0, -5, -11
1503510970012,-19, -10, -8, -3, -3, 0, 1, 17
1503510970019,21, -10, -1, -1, 1, 0, -2, -10
1503510970027,27, 14, -1, -2, -1, -1, -5, 3
1503510970041,7, 5, -1, 1, 0, 4, 5, 32
1503510970049,10, 4, 0, -1, -2, -3, -1, -24
1503510970050,-14, 2, -1, -1, 0, 3, 8, 10
1503510970056,-21, -21, -5, -3, -1, -3, -6, 9
1503510970074,35, 28, 5, 2, -1, -1, -3, -8
1503510970075,-55, -18, -9, -4, -2, -1, -3, -2
1503510970079,-23, -9, -5, 0, -2, -1, 2, -15
1503510970094,39, 36, 7, 1, 0, -1, -1, 3
1503510970101,-37, 2, 0, -2, -1, 0, 5, -1
1503510970109,-16, -7, 1, 0, 1, -3, -1, -16
1503510970117,4, 5, 3, -1, 0, 2, -1, -18
1503510970132,15, 14, 3, -2, -2, -1, 2, 31
1503510970141,9, 10, 5, -2, 0, 0, 0, 8
1503510970154,8, 29, 11, 1, 0, -2, -3, -8
1503510970161,-4, -4, 0, 1, -1, -1, -2, 0
1503510970169,9, -14, -4, -1, -1, 2, 3, -5
1503510970176,-6, -9, -3, -2, -1, -1, -4, -7
1503510970192,8, -15, -5, 0, 0, 0, 0, 2
1503510970198,27, 0, 1, 3, 0, -2, 1, 4
1503510970215,-11, -6, -2, -1, -2, -1, -1, 2
1503510970221,7, 15, 4, 1, -1, -4, 0, -6
1503510970229,4, 0, -2, 0, -1, 0, -1, 6
1503510970236,-39, -1, 3, -1, -2, 0, 0, 5
1503510970252,2, 0, 0, 0, -1, -3, -4, 3
1503510970258,-3, -7, 1, 2, -2, -1, -4, -8
1503510970259,-17, 10, -6, -3, 1, 0, -2, -2
1503510970276,-12, -3, -2, -2, 0, -3, 4, 0
1503510970282,5, -9, -6, -3, -2, -1, -6, -5
1503510970289,5, 2, 3, -2, -3, 0, 0, 1
1503510970296,7, 14, 8, 3, 1, -1, 1, -5
1503510970314,10, 1, 1, 2, 0, 0, 0, 5
1503510970319,-5, -12, -8, -5, -3, -1, -5, -9
1503510970334,1, -1, 3, 0, 0, -3, -2, -5
1503510970343,19, 3, -4, 0, -1, -1, 1, 3
1503510970349,-23, -19, -1, 1, 0, 1, 2, -4
1503510970356,10, -12, -3, 0, 0, 0, 0, -1
1503510970372,2, -2, -4, -2, -3, -1, -1, -3
1503510970379,9, 5, -1, -1, -2, -2, -1, -1
1503510970394,23, -8, -4, -2, -1, 2, -2, 1
1503510970401,4, 3, -1, -3, 0, 0, 1, -4
1503510970411,4, 3, 0, 0, -2, -3, -5, -3
1503510970416,-4, 7, 1, -1, -1, 0, -4, -4
1503510970432,-8, -7, -7, -3, -2, -2, -1, -3
1503510970438,-14, -7, 3, 1, 0, -3, 1, -1
1503510970454,-2, -5, -2, -2, -1, 0, 0, 3
1503510970461,5, -2, 1, 1, 0, 0, -1, 3
1503510970469,-7, 4, 1, 0, 1, 1, -1, -5
1503510970478,7, 1, -2, 0, 0, 1, -2, -7
1503510970491,-21, -11, -7, -4, -1, 2, 0, -7
1503510970492,-9, -13, 1, 1, 1, 0, 1, 1
1503510970498,1, 4, 2, 0, -2, -3, -2, 1
1503510970517,-3, 6, -2, 0, -1, 0, 2, -1
1503510970522,-14, -6, -1, -1, 0, 0, -3, -4
1503510970530,8, -6, -3, -3, -2, 0, -2, 0
1503510970536,14, 0, -2, -2, -2, 0, 1, 0
1503510970553,2, 3, -3, -3, -1, 0, 2, -1
1503510970558,6, 1, 5, 5, -1, -1, -2, -2
1503510970559,5, 5, 0, -2, 1, -2, 1, -3
1503510970574,-6, 19, 2, -1, -4, -6, -4, -8
1503510970581,5, 1, 0, -1, -1, 0, 0, -1
1503510970590,6, 4, -1, 1, 2, 0, 1, -2
1503510970603,-7, -1, 1, 0, -1, -1, -1, 1
1503510970612,-1, 4, -1, -3, -1, -1, 2, 7
1503510970619,-20, -11, -1, -2, 0, 0, -1, 0
1503510970634,-9, -16, -3, 0, -1, 0, -1, 2
1503510970641,-6, 0, -1, -3, -1, 0, -1, -2
1503510970649,-4, 3, -1, 0, 1, -2, -2, -7
1503510970664,-10, 4, 2, 0, 1, -1, -2, -4
1503510970672,12, 26, 4, 0, 1, 1, 1, 3
1503510970679,-4, -2, 2, 0, 0, 0, -1, 4
1503510970694,-13, -6, -4, -2, 0, -1, -4, -4
1503510970702,2, -3, -3, 0, -1, 0, 1, 4
1503510970709,-9, 2, 2, 1, 0, 0, -3, -6
1503510970724,0, 1, 0, 1, -2, 0, 0, -5
1503510970732,7, -8, 2, 2, 0, 1, 0, 0
1503510970739,-2, -2, -2, -2, -2, -2, -2, -3
1503510970755,4, 3, 1, -2, 0, 1, 0, 5
1503510970761,-10, 15, 0, -2, -2, -2, 0, -5
1503510970769,7, 8, 0, -4, -2, -2, -1, -1
1503510970784,20, -6, -6, -2, -1, -2, -4, -3
1503510970792,-1, 7, 7, 3, 1, 1, 3, 4
1503510970798,-2, 5, 2, -1, 0, 0, -2, -8
1503510970799,-6, -2, -1, -1, 0, 1, 3, 0
1503510970814,-14, -14, -10, -4, -3, 0, 0, 0
1503510970822,5, -3, 4, 5, -1, -2, -1, 6
1503510970829,4, -1, 1, 2, -3, -4, -2, 2
1503510970844,-12, -2, 0, 1, -1, 0, -3, 1
1503510970854,3, -7, 3, 5, 3, -1, 2, 1
1503510970859,2, -3, -3, -1, 0, -2, -2, -1
1503510970874,-4, -3, -6, -5, -4, -2, -2, -1
1503510970881,-6, -10, 1, -2, -1, 0, 1, 1
1503510970889,17, 10, 3, 0, 1, 3, 2, 4
1503510970903,5, -1, -4, -3, -2, -2, -2, 0
1503510970913,-4, -3, -1, -1, 1, -2, -1, -5
1503510970919,19, -7, -6, -4, -3, -1, -1, 1
1503510970934,0, 4, 6, 7, 5, -1, -2, -2
1503510970941,-5, -4, -6, -3, 1, -1, 0, -2
1503510970949,-1, -1, -1, -3, -3, -4, -7, -7
1503510970964,24, 9, 1, 0, -1, -3, -9, -13
1503510970972,-3, -9, -1, -1, -2, -4, -2, 4
1503510970980,7, -4, -4, -5, -4, -1, 1, 5
1503510970994,-6, -12, -7, -5, -2, 1, -2, -4
1503510971001,-6, -2, 1, 1, 2, 2, 0, 1
1503510971009,3, 0, -5, -3, -3, 4, 2, 2
1503510971024,-1, 50, 17, 5, 2, -4, -2, -2
1503510971031,2, -4, 3, 4, 2, 0, -1, 1
1503510971032,-7, -3, -2, -1, -1, -1, -1, -3
1503510971038,7, -2, -3, 0, 0, 2, 2, 3
1503510971039,-15, -19, -12, -2, -2, -1, -2, 0
1503510971054,5, 1, 1, -1, -1, -3, -3, -6
1503510971061,3, -2, -2, 0, -3, 1, 5, 7
1503510971069,9, -8, -7, -2, -1, -2, -2, 2
1503510971084,7, -6, 0, 1, 0, 0, -1, 0
1503510971091,-29, -3, -5, -2, -2, -1, -2, -5
1503510971098,-5, -5, 1, 0, -1, -1, -1, -2
1503510971115,26, 10, 4, -1, 2, 1, 2, 4
1503510971121,-24, -19, -2, 0, 1, -1, -1, -11
1503510971137,-11, -2, 0, 1, -2, 0, 1, 1
1503510971143,-34, -11, 0, 1, 0, 0, -1, -5
1503510971158,-2, -1, -1, 0, 0, -2, -1, -1
1503510971160,10, -3, -1, -4, -2, -1, -5, -4
1503510971173,-10, -5, 0, 1, 2, 3, 1, -3
1503510971182,16, 2, -6, -4, -1, -2, 1, 4
1503510971189,-5, -2, -2, 0, -2, -2, -5, -11
1503510971203,11, 1, -1, -1, 1, 1, 0, 5
1503510971211,2, -2, 3, 1, 0, 2, 1, 4
1503510971219,0, 2, -1, -2, -2, -1, -1, 4
1503510971234,-3, 13, 0, -1, 0, -3, -3, 1
1503510971241,0, 2, 0, 0, -1, -2, 1, 4
1503510971249,1, -2, -1, 1, 0, 3, 9, 10
1503510971263,0, -1, 1, 0, -2, -1, 0, -1
1503510971272,2, -3, -2, -2, -1, 0, -2, -1
1503510971278,-11, -3, -2, 0, -1, 0, -1, -3
1503510971294,-1, -2, 2, 1, -1, -2, -1, -1
1503510971301,4, -3, 1, 2, -2, -2, -6, -11
1503510971309,-3, 2, -4, -4, -3, -4, -5, -3
1503510971325,-6, 6, 5, 2, 1, -2, -4, -4
1503510971331,1, -6, -4, -2, -1, 2, 1, -1
1503510971339,6, 6, 0, 0, 1, 0, 3, 1
1503510971354,-5, -3, 1, 1, 0, -1, -2, -5
1503510971361,7, -4, -2, -2, 1, 3, 1, 1
1503510971369,9, 1, 1, -2, -1, -3, -2, 0
1503510971384,-11, -3, -5, -2, -3, -2, -1, -5
1503510971392,-15, -10, -5, -4, -2, -1, -3, -5
1503510971398,2, -2, -1, 2, 1, 1, 0, 2
1503510971418,7, 1, 0, -1, 0, -2, -1, -1
1503510971421,-12, -6, -10, -9, -4, -3, 0, -3
1503510971429,9, 4, 0, 0, -2, 0, -3, -1
1503510971443,3, -4, -3, -2, -2, -1, -2, -1
1503510971452,1, -2, -1, 0, -1, -2, 1, 2
1503510971459,6, -1, 3, 2, -1, -3, -2, 0
1503510971474,-4, 4, -1, 1, 0, 1, -2, -2
1503510971481,6, 17, 1, -2, -2, 0, 1, 4
1503510971489,2, -1, 0, 0, -1, 0, -1, 1
1503510971503,10, -15, -6, -2, 0, 0, -1, -1
1503510971513,-14, -7, -1, 1, -1, -1, -2, -5
1503510971526,-4, -1, 1, 0, 0, 0, 0, -1
1503510971534,4, -5, 2, 1, 0, -2, -1, -1
1503510971541,-14, 0, 0, 0, -1, 0, 0, -5
1503510971556,13, 2, -4, -3, -2, -3, -3, -3
1503510971563,-11, 1, 0, 2, -1, 0, -1, -7
1503510971572,25, 1, -3, -1, -1, 1, 0, 5
1503510971586,-16, -8, -3, -1, 0, -2, -2, 2
1503510971594,-9, 6, -2, -1, -1, 0, -1, -5
1503510971601,8, 2, 4, 1, 0, -2, -2, 2
1503510971620,-13, -9, 0, 0, 1, -2, -1, -2
1503510971624,4, 13, 2, 1, 0, -1, -2, 2
1503510971632,2, 18, 3, -2, -1, 0, 2, 2
1503510971646,7, -5, 0, -1, -1, -1, 1, 4
1503510971659,-48, -11, 1, -1, -2, -3, -3, -11
1503510971661,22, 29, 4, -2, -1, -1, 1, 6
1503510971676,4, 17, 2, 0, 0, -1, -2, -1
1503510971687,-19, -13, -4, -2, -2, -1, -3, -6
1503510971692,17, -4, 2, 2, -2, -3, -1, 7
1503510971706,1, -4, -1, -3, -1, 1, 2, 0
1503510971714,-3, -8, -4, -3, -2, 1, 2, 1
1503510971723,1, -2, 3, 0, -1, -2, -3, -10
1503510971736,0, 3, 2, 0, -1, 0, 0, -4
1503510971743,-4, -9, -4, -1, -2, -1, -1, 1
1503510971752,13, 6, 0, 0, 0, -1, -3, -2
1503510971766,-19, -12, -5, -2, 1, -1, 0, -5
1503510971774,-5, -8, -5, -3, 0, -1, 0, -1
1503510971781,13, 1, 1, 0, 0, -3, -1, 3
1503510971796,-10, -16, -4, -2, -1, -1, 1, -4
1503510971803,-3, -4, -1, -1, -1, 0, 0, 2
1503510971811,-15, -6, 1, -2, -2, -2, -2, -9
1503510971826,2, 35, 6, 2, 1, 1, 1, -2
1503510971834,3, 1, 1, 0, 0, -1, 0, 4
1503510971841,-10, -1, -4, 0, -1, 0, -1, -1
1503510971856,-12, -12, -4, 0, 0, 0, 0, 0
1503510971864,5, -11, -3, 0, 0, -2, -1, 0
1503510971871,11, 4, 1, 1, 0, -2, -2, 1
1503510971888,2, 4, 0, -2, 1, -1, 0, 2
1503510971889,-3, -3, -1, -1, -1, 0, 0, -1
1503510971895,15, 1, 0, 0, -2, -2, 1, 3
1503510971901,17, 6, -1, -1, -3, -1, -4, -1
1503510971916,4, 3, 4, 1, 1, 0, -1, 6
1503510971926,-16, -4, -3, -2, 0, -1, -1, -6
1503510971932,4, 8, -3, -2, 2, 0, 0, 1
1503510971945,-11, -12, -3, 0, 0, -1, -2, -2
1503510971955,-3, -3, -1, -3, -2, 0, 2, 2
1503510971961,-5, 2, 0, -3, 0, -1, 0, 2
1503510971976,-6, -18, -3, 1, 0, -3, -3, -5
1503510971984,-7, -9, -1, 2, 0, -1, 0, -5
1503510971992,2, -6, -4, -2, -1, -2, -1, 0
1503510972006,25, 2, -1, 0, -2, 0, 1, 4
1503510972014,-3, 2, -2, -3, -2, 0, -1, -1
1503510972022,11, 8, 1, 0, 0, -1, 2, 6
1503510972036,-10, -1, -2, -1, -1, 1, 0, -3
1503510972044,-7, -14, -2, -1, 0, 0, 1, 0
1503510972054,12, 7, -2, 1, 0, -2, -2, 0
1503510972067,2, 5, -4, -3, -1, -1, -1, 3
1503510972075,-12, -5, 0, -1, -2, -1, 1, -3
1503510972081,-3, -5, -7, -3, 0, -3, -2, -4
1503510972097,-13, -1, 2, 1, -1, 0, -2, -3
1503510972103,16, 5, 0, 1, 0, -1, 0, 4
1503510972104,-2, 1, 0, 1, -1, 0, -2, -2
1503510972111,-5, -4, 0, -3, -2, -2, 0, -1
1503510972112,5, -7, -1, 0, -2, 0, -1, 2
1503510972128,-5, 0, 1, -1, -1, -2, -2, -2
1503510972134,10, 3, -3, -2, 0, 0, -1, 0
1503510972141,17, 22, 5, 0, -1, 0, -1, 1
1503510972156,16, 7, -2, -2, 1, -1, 0, 3
1503510972164,-21, -14, -3, -2, -1, 0, -4, -11
1503510972171,16, 19, 0, -3, -1, -2, -2, 1
1503510972189,14, -10, -4, -1, -1, 1, 1, 3
1503510972194,-2, 7, 5, 0, -2, -2, -2, -1
1503510972201,-20, 3, 5, 0, 0, -2, -1, -4
1503510972216,-9, -5, -3, 1, 0, -1, -1, -4
1503510972224,-1, -6, -1, -2, 0, -2, -1, -4
1503510972232,-18, -14, 2, 1, 1, 2, 1, 0
1503510972246,3, -2, -1, 0, -2, -2, -2, -3
1503510972257,2, -4, -5, -1, -2, -3, -2, -2
1503510972261,2, 3, 0, 1, 0, 0, 1, 2
1503510972276,-31, -8, 1, 2, 0, 2, -1, -1
1503510972284,1, -4, -3, 0, -1, 0, -1, 1
1503510972292,0, 1, -3, 0, 1, 1, 0, -1
1503510972306,3, -4, -3, -2, -2, 0, 0, 0
1503510972314,-24, -13, -4, -1, -2, -2, 1, 0
1503510972324,-4, -11, 2, 2, -2, -2, -3, -6
1503510972336,9, -5, -5, -2, 0, -1, 0, 2
1503510972343,0, -1, -1, 0, 0, -2, 1, 5
1503510972352,29, -4, 0, -2, -3, -1, -2, -6
1503510972366,16, 6, -1, -2, -1, -2, -1, 2
1503510972374,10, 2, -3, -1, 0, -1, -2, 1
1503510972381,-10, -2, 0, -1, -2, 2, 2, -1
1503510972396,-1, -5, -1, 0, 0, -1, -1, 0
1503510972411,-17, 17, 6, 0, 1, 0, -1, 1
1503510972412,-5, 4, 0, -1, -2, -1, -2, -5
1503510972426,4, -4, -1, 0, -1, -2, -1, 2
1503510972434,-7, 1, 1, -1, -2, -1, -2, -2
1503510972448,-5, -10, -5, -3, 2, 1, -1, -2
1503510972458,16, 7, -5, -3, -3, -3, 1, 5
1503510972464,-1, -2, -3, 0, -2, -2, -3, -4
1503510972478,15, 17, 5, 1, 0, 1, 0, 4
1503510972487,11, -11, -3, 0, -1, -1, 0, 4
1503510972494,10, -5, -1, 0, 0, 0, 0, 0
1503510972508,-7, -10, -6, 0, 1, 2, -1, -1
1503510972516,1, 7, 3, 1, -1, 0, 2, 1
1503510972525,7, 0, 1, -1, -2, -1, 0, -1
1503510972539,-14, -3, -1, -3, -1, -1, -2, -4
1503510972546,-1, 7, 5, 1, 1, 0, 1, 0
1503510972554,-7, -7, -4, -2, -1, -3, -1, -3
1503510972568,-3, 2, 0, 0, 0, 0, -1, 1
1503510972576,-6, -1, 1, -2, 1, -1, -2, -2
1503510972584,6, 5, -1, 0, -1, -2, -3, -4
1503510972599,2, 1, -1, -2, -1, 0, -3, -4
1503510972606,-18, -8, -7, -2, -2, 0, 0, -2
1503510972614,9, -15, -7, -1, -2, 0, -1, -4
1503510972628,9, -14, -3, -1, -2, -1, 1, -1
1503510972636,-2, 3, -1, 0, 1, 0, -1, 4
1503510972643,-2, 2, 3, -1, -1, 0, -1, -3
1503510972663,-2, -5, 3, 0, -1, -1, 0, -4
1503510972667,7, -1, 0, -1, -1, -2, -3, 1
1503510972674,0, 8, 0, -2, -1, 0, 0, -1
1503510972688,-4, 5, 1, 0, 0, 0, -1, -1
1503510972696,-8, -1, -2, 0, 0, -2, -1, 1
1503510972703,-10, 1, -3, -3, -1, -2, -2, -4
1503510972718,-1, 1, 2, -1, 0, -1, 1, 3
1503510972726,-7, 8, 4, 0, -1, 0, 0, 2
1503510972735,-24, -4, -1, -1, -1, 0, -1, -1
1503510972748,-2, 2, -2, -1, -1, 0, -1, -4
1503510972756,0, -12, -5, -2, 0, -1, -2, 0
1503510972764,-3, -11, -6, -3, -2, 0, 1, 2
1503510972778,4, -9, -4, -1, -2, 0, 1, -1
1503510972786,-18, 5, 1, 0, 0, -1, -2, 0
1503510972794,10, 17, 5, 3, -1, 0, 0, 0
1503510972808,1, 1, 1, 2, -1, 0, -1, 0
1503510972816,-1, 0, 0, 0, 0, -2, -1, 2
1503510972823,7, 4, 0, -3, -3, -3, -2, 0
1503510972824,-5, -5, 1, -1, -2, -2, 0, -4
1503510972838,-13, -5, -1, -2, 1, 0, -2, -3
1503510972846,7, 6, -3, -2, -1, -2, 1, 4
1503510972854,-15, 0, 0, -2, -2, -2, -1, -9
1503510972868,3, -1, -3, -2, 0, -2, -3, -2
1503510972876,-12, -7, -3, -1, 0, -1, -2, 2
1503510972883,11, -14, -1, -1, -1, -2, 1, 1
1503510972899,20, -1, 3, 0, -3, -1, -2, 2
1503510972906,5, 19, 1, 0, 0, 0, -2, -2
1503510972914,10, 8, 2, 2, 1, 0, 1, 1
1503510972928,0, -12, 0, -1, -1, 0, -1, -4
1503510972936,-13, 4, -3, -2, -3, -2, -1, -5
1503510972943,3, -5, -4, 1, 1, -1, 0, 2
1503510972961,5, -13, -3, -5, -1, -1, -1, -1
1503510972966,-2, -5, -4, -3, 0, -1, -2, -3
1503510972974,1, 1, 2, 0, -1, -2, -1, -1
1503510972988,7, 3, 0, -2, 1, 0, 1, 4
1503510972996,-12, -4, -4, -1, -3, -1, -2, -7
1503510973004,12, 1, -2, 0, -2, -2, -1, -1
1503510973018,-3, -9, 2, 1, -2, 0, 2, 2
1503510973029,-17, -4, -3, -1, -1, 0, -3, -3
1503510973034,-9, 12, 4, 1, 1, -1, -2, -1
1503510973048,15, 0, 4, -1, -1, -2, -2, 1
1503510973056,1, -3, -2, -1, -1, -1, -1, -2
1503510973064,-9, 7, 0, -1, -2, 0, 0, -2
1503510973078,8, 7, 5, 0, -1, 0, 0, -3
1503510973086,-12, -2, -1, -2, -2, -1, -1, -5
1503510973095,6, -7, 0, -1, 0, 0, 1, 2
1503510973096,-9, 1, -5, -2, -2, 0, 0, -2
1503510973108,9, -1, 3, 0, 0, -1, 0, 1
1503510973116,-1, 6, 2, 0, 1, 0, -1, 2
1503510973123,-3, 4, -3, -3, 0, 0, 1, 1
1503510973139,-6, -8, -1, 0, 1, -2, -5, -5
1503510973146,-18, 27, 3, 1, -1, -1, -4, -5
1503510973154,-3, -2, -3, -1, -1, 1, 2, 2
1503510973168,-12, -22, -3, 0, 0, -1, -2, 0
1503510973176,12, -2, 2, 2, 1, -1, 1, 0
1503510973183,-14, -16, -3, 0, -2, 1, -1, -6
1503510973199,15, 7, 0, -1, -1, 1, 1, 5
1503510973206,1, 2, 0, -3, 0, -1, -2, -3
1503510973214,1, 0, 1, 0, -2, -1, -2, -1
1503510973230,8, -4, -2, 1, 0, 1, 0, -1
1503510973236,-8, -1, -2, -1, 0, -1, 1, -1
1503510973243,-5, -6, -3, 0, -1, -1, -1, -1
1503510973258,8, -6, -5, -2, -3, -1, -2, 0
1503510973266,7, 0, 2, 0, -2, -1, -2, -5
1503510973274,-4, -5, -1, -1, -1, -2, -1, 0
1503510973288,7, 6, -1, 0, 0, 0, 0, 3
1503510973297,0, 4, 0, -2, -2, -1, 0, 0
1503510973304,0, -3, 1, -1, 0, -2, -1, -1
1503510973319,-1, 10, -3, -3, -1, -1, -1, 1
1503510973326,15, 4, -4, -1, 0, -1, -1, 2
1503510973335,2, 7, -3, -2, 0, -1, -1, -2
1503510973348,-10, 4, 7, 0, 0, 0, 0, -2
1503510973356,-13, -4, -3, 0, 1, 0, 1, -1
1503510973370,9, 1, 0, -2, -2, -2, 1, 1
1503510973378,-7, -3, 1, 0, -2, 1, -1, -5
1503510973386,-1, -5, -3, 0, -2, 1, 0, 1
1503510973401,10, -4, 0, -1, 1, -2, -2, -1
1503510973408,0, -7, 2, -1, -1, -1, -1, 0
1503510973416,-2, 0, 5, 1, 0, -3, -3, -3
1503510973431,0, -16, -3, 0, 1, -1, 0, -1
1503510973440,5, -3, -2, -1, 0, 0, 1, 3
1503510973446,8, 5, 5, 1, 0, 0, -2, -1
1503510973461,-7, 10, -2, 0, -1, -1, 1, -2
1503510973468,-9, -3, -6, -2, -1, -2, 0, -2
1503510973476,8, 0, 1, -1, -2, -2, -2, 0
1503510973490,1, 4, -3, -1, -4, -2, 0, 2
1503510973500,-3, -13, -8, 0, -2, -2, 1, 0
1503510973506,0, 6, -2, 0, -1, -1, -1, -2
1503510973521,1, 1, 2, -1, -1, 0, 0, -1
1503510973528,-4, -3, -1, -2, -1, -1, -1, -2
1503510973536,-1, -10, -3, 0, -1, -1, -3, 1
1503510973550,3, 6, -1, 0, 0, -1, -1, 0
1503510973558,1, -7, -2, -3, -1, -1, 1, -1
1503510973566,-17, -9, -6, -2, -1, -1, -1, -1
1503510973581,2, 1, -3, -1, -1, 0, -3, -2
1503510973588,-1, -4, 2, 0, -2, 0, -2, -4
1503510973596,13, -1, -1, -1, -2, -1, -1, 1
1503510973611,-28, -4, -1, -1, 0, -1, -1, -3
1503510973619,-10, -2, -1, -1, -1, -1, 3, -1
1503510973626,21, 4, 0, -1, -2, 0, -1, 4
1503510973641,5, 0, 1, -2, 1, 0, -3, -4
1503510973648,2, -4, -1, -3, -2, -2, -3, -3
1503510973656,0, 9, 4, 0, -1, 1, -2, 1
1503510973670,5, 0, 0, -2, 0, 2, -1, 1
1503510973678,-9, 0, -1, -1, -1, -2, -2, -1
1503510973693,-17, 11, 4, -1, 1, -3, -1, -3
1503510973701,4, 18, -4, -2, 0, 1, 0, 2
1503510973715,-3, 7, 2, 1, -1, 0, 1, -3
1503510973717,-3, -8, -3, 1, 0, -1, 1, 1
1503510973733,14, -7, -4, -3, -1, 1, 0, 3
1503510973739,-36, -6, -2, -2, 0, -2, -2, -4
1503510973746,0, -2, -2, 1, -1, -2, 1, 0
1503510973761,4, -5, 3, 1, -1, -1, -1, -1
1503510973768,-2, -2, -2, -3, -1, -1, -2, -1
1503510973776,7, -5, 0, 1, 0, -1, 0, 1
1503510973790,-16, 0, -4, -1, -1, 1, -1, -2
1503510973800,7, -1, -2, -2, -1, -4, -2, -2
1503510973806,3, -8, -2, 1, -1, -1, 0, -3
1503510973821,0, 6, 2, 1, -1, -1, 0, -1
1503510973828,-10, 9, 1, 0, -1, -1, -1, -2
1503510973836,-13, -9, -3, -2, 0, 0, -1, -2
1503510973850,19, -7, -3, 0, 0, -1, 1, 4
1503510973858,5, -7, -2, -1, 0, 1, 0, 0
1503510973867,-4, -1, 2, -1, -1, -1, -1, -1
1503510973868,11, -10, -5, -2, 0, 0, -1, -2
1503510973881,18, 4, -4, -2, -2, -1, 0, 0
1503510973888,12, 5, 3, 0, 0, -2, -2, -1
1503510973896,-10, -2, -1, 0, -2, -1, -2, -4
1503510973911,8, 2, 2, 1, -1, 1, 0, 1
1503510973918,-20, -4, -2, 1, -1, 0, -2, -5
1503510973926,-12, -11, -5, -3, 0, -1, -2, -1
1503510973941,12, 3, 4, -1, 0, 0, -1, 2
1503510973948,-3, -2, -6, -1, 0, -2, 0, 0
1503510973956,26, 3, 0, -2, 0, -1, 1, 0
1503510973970,-1, -7, -1, -1, 0, -1, -2, -5
1503510973978,0, -2, -1, 0, -2, 0, 1, 0
1503510973986,20, 3, -3, -2, -2, 0, 1, 4
1503510974002,-7, -2, -2, -1, -2, -1, 0, -2
1503510974008,-4, -2, -3, -1, -1, -2, -2, -2
1503510974016,-12, -9, 0, -2, 0, -1, -2, 1
1503510974030,-5, 4, 0, -1, -2, -1, -2, -2
1503510974039,-5, -1, -1, 2, 0, -1, 0, -1
1503510974046,-7, 3, 2, -3, -1, 1, 0, -1
1503510974061,-3, -5, -1, -3, 0, 0, -1, 1
1503510974070,7, 2, 3, -1, -1, -1, 1, 0
1503510974076,-24, -1, -3, -2, 0, 0, -1, -1
1503510974090,-5, 5, 4, 3, 0, -1, -3, -2
1503510974098,4, -4, 1, 0, -1, 1, -1, -1
1503510974099,6, -8, 0, 3, 0, 0, 1, 1
1503510974106,-13, -6, -5, -2, -1, -2, 0, -5
1503510974121,-11, 1, -3, -1, -1, -1, -2, -7
1503510974128,3, -5, 0, 1, 1, -2, -3, 2
1503510974136,-4, -4, -5, -1, -1, 1, 0, -2
1503510974150,17, 5, 2, -1, -1, -2, -3, 1
1503510974158,2, 6, -2, -3, -3, -1, -1, -1
1503510974166,-10, -2, 0, -1, -2, -2, 0, -1
1503510974181,16, 5, -2, -2, -1, 1, -2, 1
1503510974188,-10, -3, -2, 0, 1, 0, 1, -3
1503510974196,-1, 1, 1, -2, 0, -2, 0, -1
1503510974212,3, -2, -1, -2, 1, 2, 1, 3
1503510974218,-5, 0, 0, -1, 1, 0, -3, 0
1503510974219,4, 3, 0, 3, 0, -1, -1, 2
1503510974226,-3, 0, 1, -2, -3, 0, 1, -2
1503510974241,1, 13, 5, 0, -1, -1, -1, -1
1503510974248,1, -1, -2, -1, -2, 1, -2, -6
1503510974256,0, 14, 7, 1, -1, -1, -4, -7
1503510974270,-13, 5, 2, 1, -1, -2, -3, 0
1503510974279,-10, 16, -2, -4, 0, -1, -1, -1
1503510974286,4, -4, -2, -1, -1, -1, -1, 0
1503510974304,0, -11, -3, 0, 0, -1, 0, 1
1503510974308,1, -2, 1, 0, -3, -1, -1, 0
1503510974324,6, -6, 1, 0, -1, 0, 0, 1
1503510974330,-4, -6, -5, -1, 1, 1, 1, 0
1503510974339,0, -8, -3, -1, -2, -3, -2, -5
1503510974353,-2, 4, 0, 0, -1, 0, -1, 2
1503510974361,10, -12, -5, -1, -1, -1, -1, 2
1503510974371,-1, 1, 0, 1, 0, -1, -1, -3
1503510974384,3, -17, -7, -1, 1, 0, 0, 1
1503510974390,30, 13, 0, -1, -1, -3, 0, 5
1503510974398,-2, -14, -8, -2, -1, 0, -1, -2
1503510974413,-45, 64, 20, 1, -1, -1, -4, -11
1503510974421,-12, 4, 4, -1, -3, -3, -3, -6
1503510974428,10, -16, -2, -1, 1, 0, 2, 8
1503510974444,-14, -3, -3, -2, -2, -3, -6, -14
1503510974450,-10, -15, -5, -1, 1, 1, 0, -4
1503510974458,11, -3, -2, 0, 1, 2, 4, 9
1503510974473,1, -11, -4, 0, 0, 0, 0, -2
1503510974481,3, 1, -2, -1, 0, 2, 0, 1
1503510974488,5, -7, 1, -1, -1, -1, 0, 1
1503510974506,-4, 3, 1, -2, 1, -1, -1, -4
1503510974513,-1, -14, -7, -2, -1, -2, 0, 0
1503510974519,0, 3, 1, -2, -1, -2, -6, -5
1503510974533,1, -6, 0, 0, 1, -2, 0, -1
1503510974541,2, 1, 1, -1, 2, 2, 2, 5
1503510974548,-22, -6, -3, -4, -3, -1, -2, -5
1503510974563,13, -1, -4, -17, -1, -1, 1, 7
1503510974572,-5, -6, -4, 43, -1, -2, -3, -5
1503510974578,1, 4, 2, -10, -1, 0, -2, 1
1503510974592,5, 2, -1, -11, -1, -2, -1, -1
1503510974593,0, -2, -2, -9, -5, -2, -1, -4
1503510974601,-1, -2, -8, 10, 1, -2, 1, 0
1503510974609,2, 33, 16, -6, 2, 1, 1, 4
1503510974623,-7, -7, -2, -3, -1, 0, 0, -2
1503510974630,9, -17, -9, -6, -1, -2, -3, -3
1503510974640,-31, -6, 0, 1, -1, 0, 4, 3
1503510974653,5, -5, -4, -6, -1, 0, -1, 5
1503510974661,5, -2, 1, 4, -1, -4, -2, 0
1503510974670,11, -8, -4, -5, 0, -1, 0, 1
1503510974684,7, -4, -3, -14, -3, -2, -3, -11
1503510974691,-4, -4, -1, -12, 0, 1, 1, 0
1503510974698,17, -8, -5, -1, -1, 0, 5, 10
1503510974714,-2, -6, -11, 1, -2, -5, -3, -1
1503510974721,-1, -10, 1, 0, 0, -3, 0, -4
1503510974736,7, -2, -4, 3, 0, 0, 1, 0
1503510974744,3, -1, -2, 6, -1, 0, 4, 4
1503510974752,-10, 5, 4, -3, -2, 1, 2, -1
1503510974759,-11, 6, 2, 6, 1, -2, -3, -3
1503510974774,-1, -11, -3, -7, 0, -1, -5, -8
1503510974782,8, 12, 3, 5, 0, -1, 0, -1
1503510974797,5, -13, -5, -3, -1, 0, -3, -1
1503510974803,3, -1, 4, -1, -1, 0, -1, 3
1503510974811,-9, 8, 8, -1, -3, -2, 1, -4
1503510974818,-5, -6, -5, 4, 1, 2, 1, 6
1503510974834,-18, -3, -2, 0, 1, 1, 1, 0
1503510974841,4, -19, -10, -2, -2, -1, -1, 4
1503510974856,2, -5, 2, 1, 0, -1, -1, 1
1503510974863,5, 31, 12, 3, -2, -2, -5, -7
1503510974873,13, 5, -3, 0, -1, 1, 2, 2
1503510974879,-5, -19, -6, 1, -2, -1, -6, 0
1503510974894,0, 1, 1, -2, -1, -1, -1, -1
1503510974901,-35, -6, -5, -3, 0, -2, 2, -4
1503510974917,-3, -9, -5, -2, 2, 0, -1, 2
1503510974923,3, 11, 1, -3, -2, 1, -2, -7
1503510974931,-26, -1, -3, -1, -2, -2, -1, 2
1503510974938,6, 18, 3, 1, 0, 0, -2, -1
1503510974954,8, -2, -1, -1, -1, -2, -1, -1
1503510974961,-1, 2, -3, 1, -1, -2, -4, -4
1503510974978,3, 0, -4, -1, 0, 1, 2, 2
1503510974983,-5, 58, 19, -1, 0, -2, -4, -6
1503510974999,-9, -16, 3, 0, -2, -2, -2, -3
1503510975000,7, -26, -8, -4, -1, 0, 1, 3
1503510975014,19, 8, -2, -1, -1, -3, -2, 0
1503510975021,-29, -17, -4, 0, -2, 0, -4, -9
1503510975036,10, 2, -5, -1, 0, 1, 1, 1
1503510975044,-16, -7, 4, 1, 1, -1, 2, 3
1503510975051,-3, 3, -3, -4, -2, -5, -4, -4
1503510975058,-2, -12, -4, -2, 0, -1, 0, 2
1503510975076,-16, -4, 1, 0, -1, 0, -1, 1
1503510975082,3, -23, -7, -1, 0, 0, 2, 3
1503510975097,4, 13, 2, 0, 2, 0, 1, 0
1503510975104,9, -1, -3, 1, -1, 1, -1, 0
1503510975112,-2, -11, -3, -3, -2, 0, -2, -5
1503510975126,20, 0, -3, -1, -1, -1, 2, 2
1503510975134,0, 16, 11, 3, 1, -1, -1, -1
1503510975149,-24, -11, -5, -3, -1, -1, -1, -3
1503510975156,-7, -15, -4, 1, -1, -1, -1, -3
1503510975163,2, 5, 1, -1, -1, 0, -2, -1
1503510975180,13, 5, 2, 0, -1, -4, -1, 0
1503510975194,4, 6, 2, 0, -1, 0, 0, 6
1503510975201,-1, 1, -3, -2, -2, -1, 0, -3
1503510975218,4, -7, -5, -1, -3, -3, -4, -5
1503510975223,6, -3, -3, -1, -1, 0, 0, 3
1503510975231,2, -5, -4, -2, -1, -1, 1, 0
1503510975246,6, 6, 5, 1, -1, 0, -1, 2
1503510975254,-2, -1, 2, 2, -1, 0, -1, -3
1503510975261,14, 6, -2, -1, 0, -1, 1, 5
1503510975278,-7, 3, 1, 0, 0, 0, -2, -5
1503510975283,-1, -7, -1, -2, 0, 0, -2, -2
1503510975292,15, 1, -2, 0, -1, -3, -2, 3
1503510975306,-4, -6, -3, -1, -2, -1, 0, -4
1503510975315,-22, -1, -5, -1, -2, -1, 0, -3
1503510975321,-18, -5, -2, -1, -1, -1, -3, -2
1503510975336,-14, -5, 0, -2, -1, 1, 0, 1
1503510975345,-2, 4, -2, 0, -2, -1, 0, -5
1503510975352,16, 12, 3, -3, 0, -2, 0, -2
1503510975366,9, 2, 0, 0, -1, -1, 1, 1
1503510975374,9, 4, 1, 2, 0, 1, 1, 5
1503510975381,-6, 3, 3, 0, 1, -1, 0, 0
1503510975396,7, -8, -3, -1, -1, -2, 1, 1
1503510975403,-6, -10, 1, 1, -1, 0, -2, -4
1503510975413,-6, 6, -3, -1, -1, -1, 0, 1
1503510975426,-3, 21, 15, 1, 0, -2, -1, -1
1503510975434,-16, 0, 8, 0, -1, -1, -6, -15
1503510975441,12, -1, -2, -1, 0, 0, 1, 3
1503510975456,5, 10, -3, -3, 0, -1, -2, -3
1503510975463,3, 2, -6, 0, -3, -2, -2, -1
1503510975472,3, -5, -3, -2, -1, -2, 0, 1
1503510975487,9, 0, -1, -2, -2, 1, 0, 2
1503510975494,12, -10, 1, 1, 0, 1, 1, 4
1503510975501,0, -9, -8, 1, 0, 0, 0, -1
1503510975518,2, -14, -3, -1, -2, 1, 1, 0
1503510975523,-5, -11, -10, -3, -2, -1, -2, -4
1503510975531,18, 7, 2, 0, 1, -1, 0, 3
1503510975546,8, -7, -1, 0, 1, 0, 1, 0
1503510975554,-2, -6, -3, -2, 0, 0, 0, 1
1503510975561,13, 3, -2, -3, -2, -2, 0, 1
1503510975580,4, 14, -3, 0, 0, 1, -1, -5
1503510975583,-5, -9, 0, -1, 1, -1, -2, -3
1503510975592,-7, -11, -2, -1, 0, 2, 2, 5
1503510975606,-2, 9, 5, 1, 0, -1, -1, -2
1503510975614,17, 8, 2, 0, 0, -1, 0, 4
1503510975621,-9, 27, 16, 3, 1, 3, 0, 1
1503510975636,0, -2, -1, -2, -2, -3, -4, -2
1503510975646,1, -1, -6, -3, -1, -2, -1, -5
1503510975647,3, 0, -4, -3, 1, -1, -1, 0
1503510975651,-18, 2, -1, -3, -1, -2, -2, -2
1503510975666,0, -1, -4, -2, -2, -3, -2, -1
1503510975674,-6, -6, 0, 1, -3, -2, -3, -7
1503510975681,-2, -9, -2, -2, -2, -2, -2, -2
1503510975696,14, -2, -5, -3, -1, -1, 0, 1
1503510975703,5, 28, 12, 2, 0, 0, -2, -2
1503510975714,-14, -3, 0, -1, 1, 1, -1, -1
1503510975726,-1, -15, -10, -2, -1, -2, 1, -3
1503510975734,-14, 2, 4, -1, -2, 0, -1, -3
1503510975741,-8, -12, -2, 1, -1, -2, -2, -7
1503510975757,-8, -8, -5, 0, -1, -2, -3, -2
1503510975764,7, 2, -4, -2, -2, -1, 0, 5
1503510975773,-6, -7, -7, -2, -3, -2, -3, -4
1503510975786,0, 7, 1, 0, 0, 0, 2, 1
1503510975794,17, -4, 0, -1, 0, -3, 1, 2
1503510975801,13, -7, -1, -1, -2, 0, -1, -2
1503510975817,-31, 1, 3, 0, -2, -1, -4, -11
1503510975823,-4, -12, -1, -2, -1, 1, -1, -4
1503510975831,12, 1, -3, -3, -1, -1, 0, 1
1503510975848,-8, -1, -3, -1, -1, -1, -2, 2
1503510975854,-38, -1, 1, -1, 1, -1, -3, -7
1503510975861,-25, -1, -3, -2, -2, -1, -3, -5
1503510975878,5, 0, -3, 1, 0, 1, 1, 2
1503510975884,6, -9, -5, -2, -1, -1, -2, 1
1503510975891,0, -10, -3, 1, 0, -1, -1, 1
1503510975906,-2, 9, 5, -1, -1, -2, 0, -1
1503510975917,14, 4, 3, 0, 1, 1, 0, 6
1503510975928,4, 2, 1, 2, -1, -1, 1, 1
1503510975936,7, 15, 1, -2, 0, 0, -1, -5
1503510975944,-12, 1, 3, 2, 1, 0, -1, -3
1503510975952,-22, 2, -3, 0, -1, -1, 2, 6
1503510975966,8, -4, -7, -1, -2, -3, -3, -2
1503510975974,12, -7, -2, 0, -2, -5, -2, 3
1503510975982,-6, -18, -4, 0, -1, 2, 2, 3
1503510975996,-8, 17, 8, 1, 0, 0, -2, -7
1503510976005,6, 7, 0, 0, -2, 0, -1, -5
1503510976011,9, -9, -6, -2, 0, 0, 0, 2
1503510976026,-11, -3, 0, -3, 0, 0, 1, 0
1503510976034,17, 9, 7, 1, 0, -1, 3, 3
1503510976041,-11, -2, -4, -2, -1, -1, -2, 0
1503510976057,6, -2, -2, 1, 0, 0, -1, -3
1503510976063,-1, 49, 24, 3, 2, -2, 1, 1
1503510976071,13, 1, -2, -2, -1, -1, 0, 3
1503510976086,13, -15, -8, -1, 0, 1, 2, -3
1503510976094,-9, -8, -2, 0, -2, -2, 1, -3
1503510976101,10, 11, -1, -3, -1, -1, 0, 1
1503510976117,1, -17, -7, -3, -1, -1, -4, -4
1503510976124,5, -8, 1, 0, 0, -1, -2, 1
1503510976131,-39, -9, 2, 1, 0, 0, 0, -2
1503510976146,-8, 9, 0, -1, -1, -2, -3, -2
1503510976155,10, 0, 0, -2, -1, 0, 1, 2
1503510976161,-6, -16, -9, -1, -3, -1, 1, 1
1503510976176,23, 8, 5, 3, -1, -3, -2, -4
1503510976188,7, -10, -4, -1, 0, -1, 0, 1
1503510976198,8, 0, -2, -2, 0, -1, -4, -7
1503510976206,8, -4, 0, -1, 0, 0, -3, -2
1503510976214,-26, -4, -1, -2, -1, 3, 1, 0
1503510976228,-40, -12, -2, -1, -1, -2, -3, -9
1503510976236,12, 4, -2, -1, -2, -2, -1, 4
1503510976243,-2, -9, -1, -1, -1, 0, -1, -1
1503510976259,28, 10, 2, -4, -1, -2, -3, 0
1503510976266,-20, -8, -3, 3, 2, 1, -1, -4
1503510976284,18, -1, -1, -1, -1, -2, 0, 0
1503510976290,-4, -3, -2, -2, 0, 1, 1, 2
1503510976296,-6, -6, -2, 0, -1, 0, -1, 1
1503510976303,22, 6, 1, -1, 0, -3, -2, 1
1503510976319,-25, 0, -2, -3, 0, -1, 0, 1
1503510976326,11, -1, -2, -2, -2, 0, -1, -13
1503510976334,9, -2, 0, 0, -1, -2, 1, 5
1503510976351,7, 3, 0, -1, 0, -2, -1, 2
1503510976356,-3, 1, -3, 0, 1, 0, 3, -4
1503510976363,-26, -6, -3, -2, -2, -3, -4, -8
1503510976378,-13, -7, -6, 0, -1, 0, 1, -2
1503510976386,-1, 13, 6, -2, -2, -1, -1, 0
1503510976394,-9, -6, -1, 0, 1, 0, -2, 2
1503510976409,10, 2, 0, -1, 0, 1, 1, 7
1503510976419,5, 1, 0, 0, -1, -1, 0, 2
1503510976424,-4, -16, -8, -3, -2, -3, -2, -1
1503510976438,-12, 0, 1, -2, -3, 0, -3, -10
1503510976446,54, 24, 20, 3, -1, -1, 0, -6
1503510976454,-14, 1, 1, 0, 0, -1, -2, 1
1503510976468,6, -10, -8, 0, 0, 0, 2, 1
1503510976476,-9, 1, -1, -1, -1, -2, -3, -8
1503510976485,-7, 1, 0, -1, -1, 1, 2, 11
1503510976498,12, -6, 0, -3, -1, -2, 0, 4
1503510976506,-6, -2, -7, -8, -2, -1, -1, 1
1503510976514,4, -1, 0, 0, 0, 1, 1, 0
1503510976529,12, -2, -4, -1, -2, -3, -6, -4
1503510976536,14, -4, -2, 2, 0, 1, 4, 7
1503510976543,-21, -24, -16, -3, -2, -2, -2, -6
1503510976559,-44, -6, 1, -2, -3, -2, -1, -9
1503510976566,22, -18, -7, -2, -1, 0, 0, 5
1503510976574,-27, 1, 15, 4, 1, -1, -1, -15
1503510976589,27, 9, 1, 1, -3, -3, -6, -12
1503510976597,-9, 4, -5, -1, -2, -1, -2, -2
1503510976603,-15, 4, -1, -1, -1, 1, 2, 6
1503510976620,6, -1, -5, -2, -2, -3, -5, -2
1503510976626,-8, 10, 4, 2, 0, -1, -2, 2
1503510976634,9, 12, 4, 1, -1, -1, 0, 7
1503510976649,-32, -10, -6, -1, 0, -1, 1, -3
1503510976656,15, 5, -4, -2, -3, -1, 0, 1
1503510976663,18, 5, 1, -1, 0, 0, 2, 4
1503510976678,38, 2, -1, -2, 0, 0, -3, 2
1503510976687,-20, 2, 2, 0, 0, -2, -4, -1
1503510976694,12, 13, 0, -2, -2, -2, -2, 1
1503510976708,-22, -5, -2, 1, 1, 1, -2, -1
1503510976717,-27, -11, -4, 0, 1, 1, -1, -2
1503510976723,-19, -4, -2, -1, -1, -3, -1, -2
1503510976724,20, 9, 0, 0, -2, -1, 0, -2
1503510976738,8, -8, -10, -5, 4, 1, 4, 4
1503510976746,6, -7, -5, -4, -2, -1, 0, 2
1503510976756,6, -6, -6, -1, -2, 0, 2, 5
1503510976768,-28, -10, -6, -3, -2, 0, 3, 6
1503510976777,-9, -5, -1, 1, 0, -2, 0, 6
1503510976784,5, -12, -2, 0, 1, 1, 4, 8
1503510976798,1, 3, 2, -12, -2, 0, -3, -3
1503510976806,9, 9, 5, 23, -1, -4, -2, 2
1503510976814,-2, 0, 1, 0, -1, 3, 0, -6
1503510976829,1, 9, 0, -10, -2, -2, -2, -5
1503510976836,2, -20, -6, 0, -2, -2, -3, -1
1503510976843,1, 1, -1, -1, 1, 1, 2, 1
1503510976858,-19, 3, 7, 1, -1, -5, -8, -8
1503510976866,-1, -9, -2, -1, -1, 0, 0, 5
1503510976874,-28, 0, -6, 0, 0, 0, 3, 17
1503510976889,-1, 16, 9, -3, 1, -2, 0, -8
1503510976897,-28, -4, 0, 2, 1, -2, -5, -12
1503510976903,9, -3, -4, -4, -1, -1, 1, -2
1503510976918,5, 6, 2, -1, -1, 13, 3, -2
1503510976926,-7, 4, 0, 9, 0, 0, -1, -4
1503510976934,9, -5, -2, 29, -15, -1, 4, -1
1503510976948,-5, -1, 0, -2, 17, -26, -11, -7
1503510976956,16, 0, -3, -14, -3, -8, -1, -8
1503510976964,-9, -1, 2, -2, -7, 5, -1, 5
1503510976978,3, 34, 22, -2, -1, -6, -4, -19
1503510976986,1, 2, 3, -3, 2, 2, -1, -5
1503510976994,8, 15, -2, -2, 4, 3, 2, 12
1503510977008,-31, -20, -5, -4, -6, 0, -5, -11
1503510977018,-5, -21, -6, -2, 4, 1, 1, 0
1503510977023,9, -3, -5, -3, -4, 4, 1, 2
1503510977038,6, -5, -6, -6, 0, -5, -3, 11
1503510977046,24, 8, 5, 3, -3, 5, 2, 4
1503510977057,-7, -12, -5, -1, 1, -3, 1, 2
1503510977068,-32, 11, 1, -4, 0, 1, -2, 0
1503510977076,47, -9, -4, -2, 0, 1, 0, 0
1503510977083,21, -7, -8, -2, -1, -1, 1, 1
1503510977100,-1, -5, -5, -3, -2, -3, -10, -15
1503510977106,-4, 0, 1, 0, 0, -2, -3, 5
1503510977122,-3, 1, 0, 1, 1, -3, -1, -7
1503510977129,-2, 0, -2, -2, 0, 7, 10, 9
1503510977136,-9, -1, 2, -1, -1, -3, -2, 2
1503510977150,-23, -10, 1, 0, -2, -1, -4, -14
1503510977159,-36, -5, -2, -2, -2, 0, 1, 5
1503510977160,37, 8, 1, 2, 1, -2, 0, 12
1503510977166,11, -15, -6, -2, -3, 3, -1, -18
1503510977181,-35, -16, -8, -4, -1, 2, -2, -18
1503510977190,12, -5, 0, 1, -1, -3, -1, -6
1503510977197,-74, -14, -3, 0, 4, 0, -6, -55
1503510977211,-28, -18, -1, -2, 0, 0, 3, -3
1503510977219,21, 3, 0, 0, -1, 4, 13, 40
1503510977226,20, -1, -5, -2, -2, -3, -8, -17
1503510977241,-2, 5, 1, -2, -2, -3, 4, -11
1503510977248,53, 12, 5, 1, 0, 0, 6, 15
1503510977259,27, 8, -1, -3, -2, -3, -7, 22
1503510977271,-12, -16, -9, -3, -3, -4, 1, 29
1503510977279,11, -32, -5, 2, 0, 1, -2, 9
1503510977286,-71, -10, -9, -4, 0, -3, -1, -4
1503510977301,65, 15, 5, 0, -2, -1, -3, -17
1503510977308,-9, 20, 7, 2, 1, -1, -6, -19
1503510977316,1, -4, 1, 2, 3, 1, 5, 22
1503510977317,-38, 3, -3, -4, -2, -3, -8, -56
1503510977331,33, 22, 2, -1, -1, 0, 1, 9
1503510977339,-15, 1, 7, 2, 2, 3, 6, 33
1503510977346,-9, -10, 2, 0, 0, 3, 1, 37
1503510977362,-9, 23, -1, -3, -3, -4, 0, 26
1503510977368,23, 5, 0, -1, -4, -3, -1, 26
1503510977376,-13, -12, -6, -2, -2, -1, 4, 16
1503510977393,6, 36, 5, -2, -1, -3, -6, -19
1503510977399,-15, -8, -5, 1, 2, -1, -1, -2
1503510977406,-10, 1, 0, 0, -1, 0, 1, -1
1503510977421,2, 6, 1, -1, 1, 6, 6, 15
1503510977429,-18, 0, -2, -2, -2, -2, -5, -17
1503510977436,5, 2, -6, -1, -2, 1, -5, 4
1503510977437,8, -10, -2, -3, -3, -4, 1, 20
1503510977451,-11, -4, -3, -2, 1, 1, 4, -14
1503510977461,-1, -12, -4, -2, -1, -3, -14, -33
1503510977466,-34, 0, 0, 1, 3, 5, 2, 1
1503510977481,12, 9, 3, -1, 1, 2, 2, 3
1503510977488,8, -13, -4, -3, -2, -2, -8, -14
1503510977498,3, 5, 1, 1, 0, 0, 1, -8
1503510977512,30, -3, -3, -2, 1, 0, 2, -3
1503510977519,-20, -2, 0, -4, -2, -4, -1, 5
1503510977527,-8, -1, 2, 13, -2, -3, -1, -6
1503510977541,2, -6, -1, -9, -1, 0, 1, -5
1503510977548,-5, -1, 1, 47, -1, -3, -4, -2
1503510977564,6, 5, 4, 31, 9, 1, -1, 5
1503510977571,-2, -8, -4, -28, -7, -7, -8, -3
1503510977579,14, 0, -5, -21, -3, -2, -1, -4
1503510977586,13, 12, 6, 3, 3, 3, 4, 10
1503510977601,7, 0, 1, -7, -2, -3, -5, -4
1503510977608,-1, -2, -3, -9, -2, -2, -5, -1
1503510977616,-23, -12, -2, 6, -1, 1, 0, -6
1503510977632,3, -5, -3, -16, 0, -2, 1, -9
1503510977639,-3, 4, -1, 2, -3, -1, -2, 0
1503510977646,0, -2, -3, -12, -2, 0, 2, 5
1503510977662,0, 0, -2, 18, 0, 0, -1, -2
1503510977669,29, 4, -2, -1, -1, 0, 1, 9
1503510977676,15, 3, -2, -8, -3, 0, 0, -2
1503510977691,-34, -12, -1, -1, 0, 0, -2, -2
1503510977700,-21, 9, 0, -5, 2, 3, 2, 8
1503510977706,13, -8, -4, -3, -1, 0, 0, 1
1503510977721,-3, 3, 5, 1, -2, -3, -2, -7
1503510977729,6, 2, -1, 0, -2, -1, -4, -1
1503510977736,-3, -3, -2, -5, 0, 0, -2, 5
1503510977751,-20, -4, 3, -1, -1, 1, 5, -5
1503510977761,4, -13, -3, -3, 0, 0, -4, 2
1503510977766,-21, 26, 5, 1, -1, -2, 1, -11
1503510977781,29, 9, 9, -1, -1, 0, 1, -8
1503510977788,20, -15, -6, 0, 1, -1, -4, 9
1503510977797,-30, -19, -6, -2, -1, -8, -6, -7
1503510977811,26, 12, 4, 1, 2, 2, -2, -2
1503510977819,-5, -3, -6, -2, -3, -1, 0, 4
1503510977828,9, 5, 1, 1, -1, -1, -3, -2
1503510977841,4, 14, 4, -1, -4, -5, -7, -11
1503510977848,34, -1, -2, -3, -1, 0, -1, -3
1503510977856,-27, -29, -13, -3, 1, 2, 7, 3
1503510977871,40, 46, 6, 2, 0, -1, 1, 17
1503510977879,-19, 5, -5, -3, -2, 0, -2, -29
1503510977886,23, 12, 2, 1, 2, 3, 8, 14
1503510977901,-14, 13, 5, 0, -2, -3, -1, 1
1503510977902,3, 1, 1, 0, -1, -1, -3, -8
1503510977908,-55, -21, -3, -2, -3, -4, -11, 27
1503510977916,-20, 5, 0, -2, -2, -2, -4, 2
1503510977932,-52, -11, 0, 0, 1, 1, 3, 0
1503510977939,-24, -5, -2, -1, 3, 2, 6, 15
1503510977946,-31, -30, -6, -2, -2, -3, -3, -24
1503510977963,-9, 8, 1, -2, -2, -2, -3, -50
1503510977969,-3, -13, -6, -2, -1, 0, -1, -19
1503510977976,33, 15, 4, -1, 1, 1, 2, 26
1503510977991,-19, -7, -3, -3, -1, 2, 1, -17
1503510977999,13, -9, -3, -1, -2, -4, -10, -6
1503510978006,0, 14, 1, -2, -2, -3, -4, -13
1503510978021,24, -10, -6, -1, -3, -1, 5, 22
1503510978029,-2, -7, -1, 0, -2, -1, 5, 15
1503510978043,10, 0, -2, -2, -2, -3, 0, -7
1503510978051,5, 2, 5, -2, -3, -2, -3, 6
1503510978059,-13, 21, 9, 4, 1, 1, 1, 16
1503510978073,20, -4, -7, -2, -1, -3, -3, -8
1503510978081,-4, -17, -3, -3, -2, -2, -5, -2
1503510978088,11, -6, -3, 1, -1, 0, -1, 7
1503510978105,28, 29, 2, 0, 0, 3, -2, -11
1503510978111,-15, -15, -1, -1, 1, 1, 2, -9
1503510978119,0, -4, 2, -1, -2, 0, 0, 12
1503510978133,5, 0, 0, 3, 1, 2, 0, 0
1503510978141,18, -1, 6, 3, 2, 0, 2, -1
1503510978148,-21, -8, -4, -1, -1, 0, -2, -10
1503510978167,-4, -8, 1, -1, -2, 0, -1, 9
1503510978172,8, 12, 3, 1, 0, -1, 1, 8
1503510978178,11, 6, -4, -1, -1, -2, 0, 6
1503510978192,23, 0, -4, -4, -1, 0, 0, 5
1503510978201,-1, -4, -4, -1, -2, -1, 1, -6
1503510978208,12, -4, 0, 1, 2, 0, 0, 0
1503510978223,-12, -6, -6, -3, 0, 0, 2, 2
1503510978232,-4, 17, 10, 0, -1, -2, -4, -5
1503510978239,-29, -13, 3, 3, 0, -1, 0, -1
1503510978252,-2, -7, -6, -1, -2, -1, 0, -8
1503510978261,27, -9, -2, -1, -2, -2, -3, 2
1503510978269,-8, -5, -1, 0, -2, -3, -4, -3
1503510978283,-2, 10, 5, 2, 1, -1, -2, -5
1503510978290,-8, -6, -4, 0, -2, -1, -1, -4
1503510978298,-2, 6, 3, 0, -1, 1, 1, 1
1503510978312,14, 4, -1, -2, 0, 0, 3, 4
1503510978313,-16, -7, 0, 1, 3, 0, 0, -2
1503510978321,10, 3, -2, -1, -2, -1, 2, 4
1503510978328,3, -4, -7, -5, -2, 2, 1, -1
1503510978343,-4, -3, -3, 0, 0, -4, -2, -3
1503510978351,17, 3, -1, 0, -3, -2, -1, 3
1503510978359,-24, -11, -7, -4, -1, 3, 0, -7
1503510978374,10, -1, 2, 2, -3, -1, -1, 2
1503510978381,0, 5, 5, 1, -1, 0, 0, 4
1503510978388,-7, -2, -3, -3, 0, 0, 3, 4
1503510978404,-6, -1, -2, -3, -1, -1, -3, -6
1503510978411,-12, 15, 1, -2, -1, -2, -1, -4
1503510978419,-30, 5, -2, 0, 1, 0, -2, 1
1503510978433,2, 4, 4, 1, 1, -2, -1, -1
1503510978441,3, -3, -2, -2, -1, -2, 0, -2
1503510978448,-3, -7, -3, -3, 1, 0, -1, 1
1503510978467,-11, -1, 1, -1, -1, -2, 0, 1
1503510978471,5, -8, -5, 1, -1, 0, -1, -1
1503510978479,13, -3, -3, -2, 0, 1, 0, 2
1503510978493,12, 8, 6, 6, 1, -2, -5, -6
1503510978501,-10, -4, -2, -1, -1, 0, 0, -1
1503510978508,0, -1, -1, -4, -3, -1, -2, -2
1503510978523,8, 4, 4, 3, -2, 0, -3, -7
1503510978533,-1, -3, -1, -1, 0, 1, -1, -2
1503510978539,11, 2, -5, -3, 1, 0, -2, 1
1503510978553,-1, 2, 0, 1, -1, 0, 0, 0
1503510978561,-4, -4, -4, -2, -3, -1, 2, 5
1503510978568,8, -1, 0, -4, -1, 1, 1, 5
1503510978583,12, -1, 3, 0, -1, -4, -3, -1
1503510978591,-27, -7, -3, -1, -2, -1, -2, -3
1503510978601,6, 12, 2, 0, 0, 1, 0, -2
1503510978612,0, -1, 0, 0, -1, 0, -2, -4
1503510978621,3, -6, 2, 5, 0, -3, -2, -1
1503510978628,7, 0, -3, -2, -2, -1, -1, -1
1503510978643,-11, -4, 0, 1, 2, -1, -3, -3
1503510978651,-16, -6, -3, 1, -2, -4, -7, -11
1503510978659,11, 4, -2, 1, 0, 1, 0, 4
1503510978673,9, 5, -1, -2, 0, 0, 2, 3
1503510978681,17, 8, -4, -3, -1, -4, 0, -2
1503510978688,-12, 1, 3, 1, 1, 0, -1, 1
1503510978709,-3, -8, -4, -1, -1, 0, -3, -5
1503510978711,3, -3, -7, -6, -2, -1, 0, 0
1503510978719,-12, 0, 2, -3, -1, 1, 4, 1
1503510978738,-4, -9, -3, -3, 0, -1, -3, -2
1503510978741,5, -6, -4, -1, -1, -1, 2, 2
1503510978748,-12, -4, -4, 0, -1, 1, 2, 4
1503510978763,-7, 5, 12, 4, -1, -3, -4, -3
1503510978776,-10, -2, -3, -5, -2, -2, 1, -2
1503510978780,-9, -19, -9, -4, -1, -2, -3, -1
1503510978792,2, 8, 7, 3, 1, -2, -3, -8
1503510978793,10, -2, 2, 0, 0, -1, 0, -1
1503510978804,-14, -11, -4, -3, -2, 0, -2, 0
1503510978815,13, 2, 2, 1, 1, 2, 2, 4
1503510978823,6, 5, 3, 0, -3, -2, -2, -5
1503510978838,-2, 8, 3, 0, 0, -1, -2, -3
1503510978842,-9, 0, -4, -2, 0, 1, 4, 5
1503510978853,34, 6, 4, 6, -1, -4, -3, 1
1503510978861,10, 0, -3, -1, 0, 1, -2, -5
1503510978872,-43, -7, -3, -2, -3, -2, -3, -1
1503510978883,-11, 2, 1, 0, 1, 1, 1, 1
1503510978891,-7, -1, -6, -5, -3, 0, -3, -2
1503510978899,-11, -5, -6, -2, -2, -2, -2, -13
1503510978913,8, -4, 1, 1, 0, 2, 1, 0
1503510978921,8, -5, -1, -2, 0, -3, -3, -1
1503510978928,-9, 0, -2, 0, -1, 0, -1, -5
1503510978944,11, 6, -3, -2, -1, -2, -4, 0
1503510978951,5, 1, 2, 1, 2, -1, 0, -2
1503510978966,-3, 8, 0, -2, -2, 2, 1, 3
1503510978974,9, 7, 2, 4, 1, -3, -2, 2
1503510978981,-8, -12, -5, -1, -1, -3, -1, -2
1503510978995,-14, -9, -2, -3, -3, -1, 0, 1
1503510979004,41, 6, 4, 2, -1, -4, -1, 11
1503510979011,18, -10, -9, -1, -3, 0, -1, -4
1503510979026,-6, 10, 1, -1, 0, -1, 0, 2
1503510979032,-5, -5, 1, 0, 2, 1, -2, -7
1503510979041,6, -8, 0, 0, 1, 2, 4, 3
1503510979055,8, -2, -4, -3, -2, -1, 0, 3
1503510979063,-23, -4, -4, -1, -4, -1, 0, -1
1503510979071,3, 3, 0, 0, 1, -1, -2, 0
1503510979086,-6, -4, -3, -2, 0, 0, -1, 5
1503510979093,0, -2, -3, 0, -1, -2, -1, -1
1503510979101,2, 16, -1, 0, 0, 1, 0, -9
1503510979115,-2, -3, 0, -2, 0, -1, -2, -2
1503510979123,-12, -13, 0, 0, -2, -3, -4, -4
1503510979131,8, 7, -10, -2, -1, 0, 0, -1
1503510979146,8, -8, 0, 0, 2, 1, 1, -1
1503510979152,2, -5, 0, 0, -1, -1, -2, -1
1503510979161,10, 6, -1, 0, -1, 0, 3, 6
1503510979175,-13, -4, 0, -3, -2, -2, 1, 2
1503510979183,-27, 7, 0, -2, 1, 0, -4, -13
1503510979191,8, 3, 0, -1, 0, -1, 1, 8
1503510979206,-14, -12, 0, 0, -2, -1, -1, -5
1503510979213,15, 16, 4, 0, 1, 2, 5, 4
1503510979221,-10, -8, -6, -3, 0, -1, -1, 1
1503510979235,-1, 37, 2, -2, -1, 0, -2, 5
1503510979244,19, 5, 2, 1, 1, -2, 0, 3
1503510979251,-29, -21, -5, -4, -2, -1, -3, -12
1503510979266,-17, 4, -1, -1, -3, 0, -5, -17
1503510979273,9, 3, 5, 3, 1, -2, 0, 3
1503510979281,-9, -14, 3, 0, 0, -1, 1, 6
1503510979295,-5, -8, -1, -1, -2, -2, -2, -4
1503510979304,11, -2, -3, -2, -2, -1, 1, 3
1503510979311,7, -4, 1, 1, -2, -1, 0, 2
1503510979326,3, 5, 1, 0, -1, 1, 1, 5
1503510979332,-8, -8, 0, -1, 0, 1, -2, -6
1503510979341,1, 0, -1, -3, 0, -1, 0, 5
1503510979355,-7, -2, 1, 1, 0, -2, -1, -1
1503510979363,2, 1, -1, 0, 0, -1, -3, -4
1503510979375,0, 0, -5, -2, -2, 1, 3, 2
1503510979386,-13, -1, 1, 0, -1, 0, -1, 0
1503510979392,3, -3, -1, 0, -1, -1, -2, -4
1503510979401,7, 0, -4, -2, -2, -1, 0, 0
1503510979415,-2, 2, 3, 2, 2, -2, 0, -2
1503510979423,5, 1, 0, 1, 0, 1, -2, -3
1503510979431,13, -7, -6, -8, -2, 1, 0, 1
1503510979446,-17, -2, -2, -7, -2, -2, -1, -3
1503510979452,15, 2, 0, 4, -1, -2, -1, 2
1503510979461,20, 3, 2, 5, 3, 0, 1, -2
1503510979475,-10, -4, -3, -3, -1, 0, 0, -2
1503510979483,17, 1, 1, 3, -2, -1, -3, 1
1503510979490,-5, -6, -2, -2, 0, 0, 0, 1
1503510979508,-4, -11, -4, -2, -1, -1, 0, -2
1503510979512,-6, 18, 2, -1, 0, 0, -1, 0
1503510979521,-7, -7, -3, 6, 1, -2, -2, -3
1503510979535,-7, -10, -2, -5, 0, -1, -1, -3
1503510979543,0, 2, -1, -2, -2, 2, 1, 0
1503510979550,7, -10, -5, -2, 0, 0, -1, -2
1503510979566,-21, -13, -5, -3, -1, 0, -1, -1
1503510979574,-24, -1, -1, 0, -1, -1, -2, -5
1503510979581,2, 2, -3, -1, -1, -1, 0, 0
1503510979595,-17, 5, 1, 1, -2, -2, 0, -3
1503510979603,-2, -3, -1, -3, -1, -2, 1, 1
1503510979611,2, 0, 1, 4, -1, -1, -4, 1
1503510979625,5, 8, -4, -4, -1, 0, -1, 1
1503510979626,-20, -11, -4, -3, -1, 0, -1, -2
1503510979632,1, -14, -4, 0, 0, -1, -1, -1
1503510979641,0, 7, 2, 1, -2, -1, -2, -1
1503510979655,-9, -3, 6, 0, 0, 1, 0, -2
1503510979663,27, 21, 13, 10, 0, 0, 0, 3
1503510979670,3, 7, 2, 7, 0, -1, -1, 1
1503510979686,4, -11, -9, -11, -3, -4, -2, -4
1503510979692,11, 25, 1, -1, -2, -1, -1, -1
1503510979701,5, -13, -7, 0, -2, -2, -4, -4
1503510979716,-9, -17, -8, -3, 0, 0, 1, -1
1503510979723,11, 6, 2, -1, 0, -2, -1, 4
1503510979731,4, -10, -2, -2, -2, -1, 4, 5
1503510979746,-8, -2, 0, -1, -1, 0, -2, -2
1503510979752,-8, -4, 4, 1, 0, -2, 1, -1
1503510979761,-2, 13, 3, -3, 1, -1, -3, -1
1503510979776,5, -13, -1, 0, -1, -2, -2, -4
1503510979783,-6, 9, 2, 1, -2, 0, 5, 7
1503510979784,7, -5, 1, 2, 0, -1, -1, 0
1503510979791,-2, -1, -6, -6, -3, -1, -6, -9
1503510979806,2, 21, 1, -2, -1, -1, -1, -4
1503510979813,-2, -4, -4, -2, -2, 1, -2, 3
1503510979821,-8, 1, 0, -1, 1, 0, 3, -1
1503510979835,7, 18, 5, 1, 0, -4, -3, 1
1503510979843,-18, -14, -2, -2, -3, 2, 1, 1
1503510979851,-3, -6, -3, -2, 0, -1, 1, -2
1503510979866,3, -3, -3, -1, 0, -1, 1, 3
1503510979872,0, 3, -2, -4, -4, 1, 1, -1
1503510979881,6, -6, 0, -3, 0, -2, -3, -3
1503510979895,12, 4, 2, 2, 0, -2, -1, 0
1503510979903,-5, 3, 4, 1, 0, -2, -1, -1
1503510979918,-15, -29, -10, -3, 0, 0, 0, -5
1503510979919,18, 13, -4, -2, 1, 1, 0, 8
1503510979926,9, 1, 0, 0, 0, -1, -1, -2
1503510979932,4, -6, -3, -1, -2, 0, 1, 4
1503510979933,-3, -9, -2, 1, -2, 1, 0, -2
1503510979948,-6, 4, 1, 0, -1, -1, -2, -1
1503510979956,5, -1, -3, -1, 0, -1, -1, -1
1503510979963,-5, -3, -3, 0, -2, -2, 0, -1
1503510979983,-3, 1, 3, 1, -1, -2, -4, -1
1503510979985,4, -3, -6, -4, 0, 0, 2, 1
1503510980001,-15, -4, -2, 1, 0, -2, 1, -1
1503510980010,13, 2, -2, -3, -1, -2, -2, 0
1503510980017,-8, -22, -12, -4, -1, 1, -2, -2
1503510980023,4, 11, 2, 0, 1, -1, -1, 0
1503510980039,-12, -4, -1, -3, -2, -2, -3, -11
1503510980048,10, -4, -3, -1, -2, 0, -2, 1
1503510980054,4, -2, -1, -2, 1, -1, 0, -2
1503510980068,3, -10, 1, 1, 0, -2, -3, -6
1503510980079,3, 8, 1, 0, -2, -2, -1, -1
1503510980083,-5, 2, -1, -2, -1, -1, 1, 3
1503510980098,-5, 3, 3, 1, -2, -1, 2, 0
1503510980105,6, -6, -5, 0, -1, -1, 0, -1
1503510980121,-8, 4, 4, 0, 1, 1, -2, -1
1503510980128,-18, 0, 0, -1, -2, 0, 0, -6
1503510980137,16, 6, 3, 1, -1, 1, 1, 7
1503510980144,-15, -9, 0, 0, -1, -1, -2, -4
1503510980159,-1, -21, -8, -1, 0, 1, 2, 0
1503510980166,27, 20, 3, 0, 0, -2, 1, 6
1503510980174,-16, -1, -5, -3, -1, -1, 0, -2
1503510980188,-11, -19, -4, -2, -1, -3, -4, -8
1503510980196,-17, 19, 9, -2, 0, -1, -1, 3
1503510980203,-5, 10, 0, -1, -2, 0, 0, -3
1503510980219,3, -3, 0, -2, 1, 0, 1, 1
1503510980225,1, -2, -2, -1, 0, 1, 1, 5
1503510980234,7, -4, -2, -2, -2, 0, -1, -3
1503510980248,-4, -1, 0, 0, -1, -1, -2, -2
1503510980256,5, -4, -2, 0, -2, -2, -1, -1
1503510980263,-3, -8, -10, -3, -1, 2, 2, 4
1503510980281,-43, 6, 5, 1, -2, -2, -5, -13
1503510980285,-5, 16, 6, -1, -3, -2, -4, -2
1503510980293,2, 32, 5, -1, 1, 0, 3, 2
1503510980294,23, -12, -7, -1, -1, -1, -2, 1
1503510980308,5, 2, 2, 0, 0, -1, -1, 0
1503510980317,3, 17, 6, 0, 0, -2, 0, -2
1503510980323,8, -10, -2, -1, -1, -3, 0, -4
1503510980339,-5, -8, -7, 0, 0, 0, 0, 0
1503510980346,-4, 3, 2, -1, 0, 0, -1, 0
1503510980354,-14, -1, -5, -3, -1, -1, 1, 2
1503510980368,-2, 10, 2, 0, -1, 0, -2, -2
1503510980376,22, 3, 0, -1, -2, 0, -1, 5
1503510980383,-8, -9, -1, -1, 0, -2, -1, -4
1503510980399,14, 14, 4, -1, -1, -2, 1, 0
1503510980405,-14, 14, 4, 0, -1, 0, 2, 2
1503510980414,0, -10, -3, -3, 0, -1, -2, -6
1503510980428,13, 6, -7, -2, -2, 1, 1, 3
1503510980436,1, -2, -1, 0, -1, -2, 1, 3
1503510980443,4, -19, -12, -1, -2, 0, -1, -1
1503510980459,-65, 31, 7, 0, -2, 0, -3, -10
1503510980465,-8, -3, -1, -2, 0, -1, -3, -5
1503510980473,18, 3, -2, -1, 0, 0, -3, 0
1503510980488,-7, -2, 1, 0, 0, -1, -1, -1
1503510980496,26, -14, -5, 0, -1, 1, 0, 3
1503510980503,11, -15, -4, 0, -1, -1, 1, 5
1503510980522,12, -6, 1, 1, -1, -1, 0, 2
1503510980525,4, 3, -4, -1, -1, -2, -2, -6
1503510980526,-21, -14, -3, -1, 0, -2, -1, -3
1503510980534,-1, -9, -1, -3, -1, -1, -2, -2
1503510980548,1, -13, -4, -1, 1, -1, -2, 0
1503510980556,-17, 0, 2, 0, -2, -2, -2, -9
1503510980563,22, 18, 2, 0, -2, -1, 1, 0
1503510980580,17, -12, -6, -3, 0, 0, 1, 3
1503510980586,-11, 3, 1, 1, -2, -1, 1, -1
1503510980593,-4, 4, 2, 0, -2, -2, -1, -2
1503510980594,18, -8, -5, -1, -2, -1, -1, 1
1503510980608,0, 2, 0, 0, 0, 0, -3, 0
1503510980616,2, -12, -4, 0, 1, -2, -4, 0
1503510980623,-12, -3, -2, -3, 0, -1, -2, -4
1503510980639,-11, -3, -2, -1, -2, -2, 0, -2
1503510980647,-17, -12, 3, 0, 0, -1, -1, -3
1503510980654,-1, -4, -2, -1, -1, -1, 0, -2
1503510980668,23, 22, 4, -2, -1, 1, 1, 3
1503510980677,13, 9, 8, 1, 1, -1, 1, 2
1503510980683,5, 3, -2, 1, -1, -1, -1, 1
1503510980699,0, 5, -3, -1, 0, -1, 0, 1
1503510980706,-2, 15, 7, -1, 0, -1, 0, 0
1503510980721,1, 0, 0, -2, -1, 0, 0, -1
1503510980728,-1, 3, 0, 1, -1, 0, -3, -3
1503510980736,-6, 8, 1, -2, -2, 0, -1, 0
1503510980743,-6, -11, -8, 0, -1, 0, -2, -2
1503510980759,36, 14, 1, -2, -1, 0, 1, 10
1503510980765,-26, -12, 0, 1, -2, -1, -2, -6
1503510980766,12, -19, -8, -3, -1, -2, 0, 2
1503510980782,-4, -6, 3, 0, 0, -1, -2, -2
1503510980788,17, -1, -4, -1, 0, 0, 0, 4
1503510980789,-8, 18, 4, -1, -1, 1, 0, 2
1503510980796,-14, -3, -4, 1, -1, -2, -1, -6
1503510980803,-21, 0, 6, -1, -2, -3, -1, -7
1503510980819,-10, -17, -8, -1, -2, -2, -2, -1
1503510980826,6, -6, -3, 0, 0, -2, -1, -1
1503510980841,-4, -4, 0, 0, 0, 0, 1, -1
1503510980849,4, 36, 6, 1, -1, 0, 0, 4
1503510980857,2, 7, 2, 0, 0, 0, -2, 4
1503510980871,-9, -31, -8, -2, -2, -2, -2, -9
1503510980879,-10, -7, -2, 0, -1, -1, -1, -3
1503510980886,-1, -5, 0, -1, -1, -2, 1, 0
1503510980901,3, -4, -2, -1, 2, 0, 2, -2
1503510980908,1, -10, -4, 0, 1, 1, -2, 2
1503510980921,-4, 0, 1, -2, -2, -1, -1, -3
1503510980931,2, -2, -3, -4, -2, 0, -1, 0
1503510980939,-5, 2, -1, 0, -2, -3, 0, 0
1503510980946,5, 2, 3, 0, -1, 1, 0, 1
1503510980961,-3, -15, -2, -2, -1, -1, 0, -4
1503510980968,-15, -9, -5, -1, -2, -3, 1, 2
1503510980976,-5, -11, -6, 0, -1, -2, -2, -1
1503510980991,11, 1, -7, -1, -2, -1, -1, 2
1503510980999,5, 23, 8, 0, 0, 0, -1, -1
1503510981005,6, 9, 3, 0, -1, 0, -2, 0
1503510981021,-7, -13, -2, 0, 0, 0, 2, -2
1503510981028,1, -1, -1, -3, -3, 0, 0, -3
1503510981036,0, 5, 2, 1, 0, 3, 1, 0
1503510981051,2, -23, -4, -1, 0, -2, -2, -4
1503510981060,8, 1, -5, -1, -2, -2, -4, 0
1503510981065,16, 2, -1, 0, -2, -1, -2, 1
1503510981080,-18, -15, -2, -2, -2, -1, 0, -5
1503510981081,-12, 14, -2, -2, -3, 0, -1, 0
1503510981088,-5, 4, -2, 1, -2, -2, 0, -1
1503510981096,-11, 1, -1, -1, -2, -1, -3, 0
1503510981111,0, -6, -4, -2, 0, 0, 1, 0
1503510981118,-11, 3, -2, -3, -1, 1, 0, 1
1503510981119,11, -2, -2, -1, 0, -2, -1, 2
1503510981126,-11, 11, 6, 0, 0, 0, -1, -3
1503510981141,1, -13, 0, -2, 0, -3, -1, -4
1503510981151,4, -3, 0, 0, 0, 0, 0, 1
1503510981156,-12, -8, -2, 0, -2, 0, 1, -2
1503510981170,-12, -11, -1, 0, -2, -1, -1, -5
1503510981179,-11, -2, -2, -2, 1, 1, -1, -2
1503510981186,2, -2, 2, 1, 1, 1, 1, 2
1503510981201,6, 15, -1, 0, 0, -1, -1, 1
1503510981208,-9, -3, -7, -5, -3, -2, -3, -1
1503510981219,5, 4, 4, 0, 0, -1, -1, 0
1503510981231,-10, 13, 4, -1, -1, -2, -1, 0
1503510981239,1, 2, 1, 1, -1, -1, -1, -5
1503510981246,14, -3, 0, 0, 1, -2, -1, 2
1503510981261,-11, -8, -1, 0, 0, 1, 0, -2
1503510981268,-16, 5, -4, -3, 1, -1, -1, -6
1503510981276,0, 3, -4, -1, 0, 0, -2, -1
1503510981291,8, 0, -1, 0, -2, -1, -2, -2
1503510981299,21, 43, 7, -1, -2, -2, 0, 0
1503510981305,-16, 1, -2, 0, 0, 0, -1, -3
1503510981321,20, -7, 0, -1, -3, -2, -5, -4
1503510981328,4, -4, 2, 0, 0, -1, 1, 0
1503510981336,2, -3, -2, -2, 0, 0, 0, 1
1503510981353,-17, -10, -2, 1, -3, 0, 0, 0
1503510981359,-2, -7, -1, -2, -2, -2, -2, -3
1503510981365,11, -2, -2, 0, -1, -2, -1, 0
1503510981381,0, -4, -5, 1, 2, 1, 1, 3
1503510981388,-9, -9, 1, -1, 0, -2, -3, -6
1503510981404,-7, -21, -5, 0, 1, 0, 1, 2
1503510981410,5, 9, 5, -1, -1, -2, -2, -2
1503510981411,13, -2, -2, 0, 0, 1, 0, 2
1503510981420,-12, -10, -1, -2, -1, 0, 0, -3
1503510981426,4, -5, -1, -3, -1, -2, -1, -1
1503510981440,-35, -11, -2, -1, -2, -2, 0, -3
1503510981448,-1, -5, 2, 0, -1, 0, 0, 0
1503510981456,11, 10, 1, -1, 0, 0, -1, 1
1503510981471,0, 9, -1, 0, -1, 0, 1, 0
1503510981478,-6, -1, -1, 0, -1, -1, -3, -4
1503510981486,-2, -4, -1, 0, 0, -1, 0, -1
1503510981501,12, 15, 0, -1, -2, -2, -2, 1
1503510981508,2, 18, 7, 0, -1, 1, 0, 1
1503510981516,-59, -13, -4, -1, 0, -1, -2, -4
1503510981531,16, -3, -1, -2, -3, 1, -1, 3
1503510981539,1, -6, 3, 1, 0, 0, 0, -2
1503510981546,5, -10, -3, 0, -1, -2, 0, 0
1503510981562,6, 9, 2, 0, -2, -2, -4, -6
1503510981568,17, 11, -5, -2, 0, -1, 0, 3
1503510981576,11, 9, 5, -2, -1, -1, 0, -1
1503510981591,-2, -2, -5, -1, 0, -1, -1, -2
1503510981598,12, -11, -2, -1, -2, -1, 0, 1
1503510981605,31, 3, -1, 0, -1, -2, -2, 0
1503510981622,14, -2, -2, 0, -2, 0, 0, 2
1503510981628,-7, -18, -4, 0, 0, -1, -1, -2
1503510981636,3, -9, -7, -3, -2, -1, 0, 2
1503510981651,-24, -10, 2, 1, -2, -2, 0, -3
1503510981659,4, -4, -2, -1, -2, 0, 0, 5
1503510981666,-25, 3, 2, 0, 0, -1, -1, -5
1503510981681,9, 3, 6, 2, -1, -1, -1, -5
1503510981689,4, -3, 0, -1, -2, -1, -2, -1
1503510981697,-2, -23, -7, -2, 1, -1, 0, 1
1503510981711,-1, 6, 0, -1, -1, 0, 0, -4
1503510981719,1, -3, 1, 1, -1, -1, 1, 1
1503510981726,-14, 3, 0, -1, -2, 0, -1, 4
1503510981741,21, 5, -3, -1, 0, 0, 0, 1
1503510981748,19, 4, 2, 0, 1, -1, -1, -2
1503510981764,-9, -4, 5, 0, 0, -1, 1, -1
1503510981770,-50, -6, -1, -2, -2, -2, -3, -7
1503510981779,3, 10, 2, -1, -1, -2, 0, -1
1503510981793,-3, 6, -4, -1, -2, -1, 2, 3
1503510981801,-11, -8, -7, -1, -2, -3, -3, -4
1503510981808,9, 18, 5, -1, 0, -2, 1, 1
1503510981824,7, 18, 4, -1, 0, 2, 1, 1
1503510981832,9, -7, -1, -2, -1, 0, -1, -1
1503510981839,12, -10, -4, -1, 0, 0, -1, -1
1503510981853,-13, 13, 2, 2, 1, 0, 0, 0
1503510981861,-9, -1, -2, 1, 0, -2, -2, 1
1503510981868,4, 0, 7, 1, 1, -1, -2, -2
1503510981883,-15, -3, -1, 1, -1, -1, 0, -4
1503510981892,-10, -17, -7, -2, -1, -2, -1, -3
1503510981900,-11, -1, -1, -2, -2, -2, -1, -1
1503510981920,-2, -7, -8, -2, -1, 0, -2, 0
1503510981924,1, 4, 0, -1, -2, -1, -4, -4
1503510981942,-3, -4, -1, -3, -1, -2, 0, -1
1503510981944,1, -5, 1, 2, -1, 0, 0, 1
1503510981951,10, -15, -6, -1, -3, -2, -3, -5
1503510981959,35, 11, -4, 0, -2, 0, 2, 2
1503510981975,15, 9, 3, 1, 0, 0, -2, 6
1503510981981,-5, -11, -4, -1, 0, 0, -2, -3
1503510981990,11, 2, -3, -2, -3, 0, -2, -3
1503510982003,9, 14, 9, 1, 2, 0, 1, 0
1503510982010,-43, -3, -1, 0, 0, 0, 0, -2
1503510982018,-15, 0, -4, -3, -1, -2, 0, -2
1503510982033,16, -4, -2, 1, -1, -1, 1, -1
1503510982041,-13, -7, -4, -2, -1, 1, 0, 0
1503510982048,11, 6, 1, -1, 0, 0, -1, 4
1503510982063,10, 8, 2, -3, 0, -1, 0, 0
1503510982070,-10, 1, -1, 0, 0, 0, 0, -1
1503510982078,-13, 10, -2, -1, 0, -2, -2, -1
1503510982093,17, -2, -3, 0, -1, 0, -1, 0
1503510982101,-1, -5, 1, -1, -1, -1, -1, 0
1503510982108,-9, -1, 0, -1, 0, 0, -1, -4
1503510982125,-3, -7, -4, -1, -1, -2, -2, 2
1503510982131,18, 1, -1, -1, -1, 0, -1, 4
1503510982139,-2, -12, -3, 0, 0, -3, -4, -5
1503510982153,3, 0, -3, -1, -2, -2, -1, -3
1503510982161,-12, 0, 2, 0, -1, -1, -2, 0
1503510982168,11, 1, 2, -1, 0, 0, 0, 1
1503510982183,27, 0, -3, 1, -2, -1, 0, 2
1503510982192,-12, -2, -2, -2, 1, 0, -1, 0
1503510982200,-6, 15, 5, -1, -1, 0, 1, -1
1503510982213,0, 15, 9, 0, -2, 0, 0, 4
1503510982221,4, -7, -3, -1, 0, 0, 1, 4
1503510982228,-7, -7, -3, -2, -1, -2, -3, -5
1503510982243,2, -1, 0, 0, 0, 1, -1, -1
1503510982250,-5, -7, -3, -1, -1, -1, -1, -4
1503510982259,-25, -2, 0, 0, -1, -1, -1, -2
1503510982273,2, -1, 0, 0, -1, -1, -1, -2
1503510982281,-8, 2, -1, -1, -2, 0, -1, -4
1503510982288,1, 0, -1, -2, 0, 1, 0, 2
1503510982303,12, -4, 1, 0, 1, 0, -1, -1
1503510982311,-3, -9, -2, -2, -2, 0, 0, 1
1503510982319,-5, -3, -5, -1, -3, 0, -1, -1
1503510982333,10, -8, -2, -2, -2, -2, 1, 1
1503510982341,1, 11, -3, -3, -1, 1, -2, -2
1503510982348,16, -7, -7, -1, -1, -1, -3, -4
1503510982364,32, -10, -9, -1, -2, -1, 0, 1
1503510982370,-14, -1, -1, 0, 0, 0, -3, -1
1503510982379,-10, -7, -1, -1, 0, -2, -1, -1
1503510982394,1, 4, 0, 0, -1, -3, -1, 0
1503510982401,-28, -8, -1, -1, -1, -2, -2, -2
1503510982408,-10, 0, -3, -1, -1, 0, 0, -2
1503510982423,-15, -6, 4, 1, -2, -1, 0, -1
1503510982431,3, -1, -1, 0, 0, -1, -1, 1
1503510982438,-4, -3, -1, -1, 0, -1, 1, -2
1503510982453,-23, -13, -4, 0, -1, 0, 2, 0
1503510982461,4, -7, 3, -2, -1, 0, 0, 1
1503510982469,3, -2, 7, 0, 0, -2, -2, -3
1503510982483,-20, -10, -5, -1, -1, -2, -3, -4
1503510982491,19, -3, -3, 0, -1, -1, 0, 0
1503510982500,-18, 2, 1, -2, -2, -1, 0, -3
1503510982514,-7, 5, -1, 0, 0, 0, 0, -1
1503510982522,15, 1, -3, -1, 0, -1, -1, -1
1503510982528,12, 11, -2, -3, 1, 0, 1, 2
1503510982543,15, 4, -1, -1, -3, -1, -3, -2
1503510982551,1, 8, 1, -1, -1, 0, -3, 0
1503510982561,1, 0, 1, 0, 0, -1, -1, 1
1503510982573,-3, 3, -2, -1, -2, -1, -2, -1
1503510982581,-13, 21, 5, 2, 1, -2, 2, 1
1503510982588,4, -5, -1, -1, 0, 0, 0, -3
1503510982603,-5, -2, -5, -2, -2, -1, -2, 2
1503510982611,-11, 7, -1, -2, -1, -2, 0, -5
1503510982619,20, 0, -1, 1, 1, 0, 2, 3
1503510982634,10, 3, 1, -1, -2, -1, 1, 4
1503510982648,-4, -9, -1, 0, -1, 2, -3, -5
1503510982649,-15, -2, -1, 0, -1, -1, 0, -3
1503510982664,-23, -13, -8, -1, -1, 0, -1, -2
1503510982671,15, 1, 0, -1, -2, -1, 2, 5
1503510982679,-8, -9, -2, -1, -1, -1, 0, -5
1503510982696,-3, 1, 2, -1, -1, -1, -2, -1
1503510982702,7, 3, 0, -1, 0, -1, -1, -4
1503510982715,-18, -7, 0, 1, 0, -1, -1, -5
1503510982723,-6, -4, -1, -1, 0, -1, 0, 1
1503510982731,-9, -5, -1, -2, 1, -1, -1, -1
1503510982746,18, 2, -1, 1, 0, 0, 1, 2
1503510982753,-23, 5, -1, 0, 1, 1, -2, -11
1503510982763,18, 1, 0, -1, 0, 0, -1, 2
1503510982775,5, -10, 5, 0, 0, -1, -2, 3
1503510982783,16, 4, -1, -2, 0, 0, 1, 4
1503510982790,-17, -10, -2, -2, 0, -1, 0, 3
1503510982791,11, 23, 3, 0, -3, -1, -2, -6
1503510982806,-6, 1, 3, 1, 0, -1, 1, -4
1503510982813,19, 1, -5, -4, -2, -2, -1, 5
1503510982821,28, 1, -5, -2, -1, -1, -3, 0
1503510982835,3, -3, -3, 0, 0, -1, 0, -1
1503510982843,-26, -9, -3, -2, -1, -1, 0, -3
1503510982850,-19, -4, -2, 0, -3, 1, -1, -2
1503510982866,-4, 3, -1, -2, -2, 0, 0, 2
1503510982873,-7, -8, -2, 2, 1, 1, 0, -5
1503510982881,9, 0, -1, 0, -2, 0, -2, 2
1503510982897,-18, -6, 3, -2, -1, -1, -1, -3
1503510982903,-13, -7, 5, -2, 0, 0, -3, -3
1503510982911,3, -9, -3, 0, 0, -1, -1, 1
1503510982926,6, 5, 0, -1, 0, -1, 0, 1
1503510982934,18, 1, -1, -2, -1, 0, 0, 6
1503510982941,-16, -1, 0, 1, -1, -1, -2, -3
1503510982955,-13, -8, -5, -3, 0, -2, -3, -8
1503510982964,8, -5, -2, -1, 0, -2, 0, -4
1503510982971,12, 0, 0, 0, 0, -1, -2, 3
1503510982985,-3, -5, 1, -1, 1, 0, -1, -1
1503510982986,-18, 0, -3, -1, -1, 0, -1, -3
1503510982993,-11, 0, -3, -2, -1, 0, -2, -2
1503510983002,1, 5, 0, 0, -1, -1, 0, 2
1503510983015,-5, -11, -2, -1, 1, 0, 2, -1
1503510983023,36, -10, -4, 0, -1, 0, -3, -1
1503510983032,4, 2, -5, -1, -3, -1, -1, -1
1503510983046,4, 2, -3, -1, -1, -1, 0, 0
1503510983053,-5, 2, 1, -1, 0, -2, -2, -4
1503510983061,2, 1, 1, 0, 0, 0, 0, -2
1503510983075,4, 6, 0, 1, -1, 1, 0, 2
1503510983083,-8, 4, 2, -2, -1, 1, -3, -2
1503510983090,16, 11, 5, -2, 0, 0, 0, 1
1503510983091,-9, -6, -4, -1, 0, -1, 0, -1
1503510983107,-27, -7, -3, -1, 0, -1, 1, -2
1503510983113,21, -5, -3, -2, -3, -3, -4, -2
1503510983122,21, 7, 2, -1, -1, 0, 2, 6
1503510983138,-12, 5, 3, 1, -2, 1, 3, 3
1503510983143,-14, -4, -3, -2, 1, -2, -1, 0
1503510983151,2, 4, 3, 0, 1, -1, -2, 2
1503510983167,-23, -1, -1, 1, -1, 0, 0, -2
1503510983174,-3, 4, 6, -1, 0, -2, -1, 0
1503510983181,16, -6, -5, -1, -3, 0, -3, -4
1503510983195,17, -1, -4, -3, 0, -1, -1, 0
1503510983204,-10, -12, -2, 0, -1, -1, -1, -2
1503510983211,-6, 3, -1, -1, -1, -2, -1, -1
1503510983225,19, 12, 3, 0, -1, -2, -2, -1
1503510983237,-23, -5, -2, -1, -1, -1, -2, -4
1503510983241,-25, -7, -2, 0, -1, -3, -1, -1
1503510983255,-7, -3, -3, -1, 1, 0, -2, -2
1503510983263,14, -2, -2, -4, -1, -2, -2, -5
1503510983271,-9, -7, -3, 0, -1, -1, 1, -3
1503510983285,17, 5, 2, -1, -3, -2, -1, 0
1503510983293,2, 2, 1, 1, 0, -2, -2, -2
1503510983303,-10, 6, 2, 1, -1, 0, -2, -1
1503510983315,24, -5, 1, 1, -2, 0, 3, 2
1503510983323,4, 3, 2, -1, 0, 0, 2, 0
1503510983336,6, -2, -2, -1, -1, 0, 0, 4
1503510983346,-4, 4, 8, 2, 1, -1, -1, 1
1503510983353,-10, -7, -5, -2, -2, -1, -1, -5
1503510983361,4, -5, -6, -3, -3, -2, -5, -6
1503510983375,19, 12, -4, -1, -1, 0, 0, 3
1503510983383,15, 2, -2, -2, -1, -1, 0, -2
1503510983391,24, 3, 2, -1, -1, 0, -2, 3
1503510983406,-5, -7, -1, 1, 1, -2, 0, -1
1503510983413,-17, -6, -1, -2, 0, -1, -1, -7
1503510983421,-7, 5, 0, 0, -1, 0, 0, 0
1503510983436,-6, 2, 1, 1, -2, 0, 1, 1
1503510983443,-4, -1, -6, -3, -1, 1, 0, 4
1503510983450,-37, 15, 6, -1, -1, -1, -1, -4
1503510983469,-2, 2, -4, 0, 0, 1, 3, 2
1503510983473,36, -4, -3, -3, 1, -1, -1, 3
1503510983481,-20, -4, 2, -2, -1, -1, -5, -5
1503510983495,-13, 0, 5, 1, -2, -2, -2, -2
1503510983504,2, 8, 6, 1, 0, -1, 0, 0
1503510983512,-15, -4, -3, -2, 0, -1, 0, -1
1503510983526,1, -9, -2, -1, -2, 0, 1, 0
1503510983535,16, -1, -2, -1, 0, 0, 1, 5
1503510983541,-7, -36, -4, -2, -1, 0, -1, -1
1503510983555,-5, -16, -2, 0, 0, 1, -1, -6
1503510983563,11, 17, 4, 1, 0, 0, 0, 0
1503510983572,-6, -2, -2, -2, 1, -3, 0, 0
1503510983585,14, -2, 2, 0, -1, 0, -1, 2
1503510983586,-5, -2, -1, 1, 1, -1, -1, -3
1503510983593,16, 6, 2, -1, -2, 1, 0, 1
1503510983603,-7, 9, 0, 0, 0, -3, -1, -2
1503510983615,-1, -14, -4, 0, -1, -1, -1, -2
1503510983623,-11, 8, 6, 0, -1, -2, -1, -2
1503510983640,17, 14, 4, 0, -2, -1, 1, 4
1503510983646,-17, -1, -5, -2, -1, -1, 0, -2
1503510983653,-21, -11, -6, 0, 0, 2, 0, -3
1503510983670,12, 0, -5, -3, -1, -1, -3, -2
1503510983675,-3, 25, 14, 3, -1, 2, -1, -1
1503510983684,-6, -7, -6, -2, -1, 0, 1, 0
1503510983697,5, -3, -5, -2, 0, 1, -1, -3
1503510983706,15, 0, -2, -1, -2, 0, 1, 3
1503510983713,-64, -5, -6, -2, 0, -4, -1, -1
1503510983728,-14, -8, -7, -1, 2, 1, 0, 0
1503510983738,25, 3, 1, 0, -3, -2, -1, 3
1503510983744,14, 0, 0, 1, 0, -3, -5, -2
1503510983757,-22, -10, -8, -1, -2, 0, -1, -3
1503510983758,-5, 5, 1, 0, -2, -3, -2, -5
1503510983765,9, -15, -6, -1, 0, -1, 1, 2
1503510983774,6, -5, -7, -3, -1, -2, -2, -1
1503510983788,-1, 4, -3, -3, -4, -3, -4, -6
1503510983795,20, 0, -2, -2, -2, -3, 2, 3
1503510983804,2, 2, 2, 0, 0, 0, 2, 6
1503510983818,-3, -2, 1, 0, 0, -1, -1, 0
1503510983826,-4, 6, 0, -1, -2, 0, 0, 2
1503510983833,11, -11, -6, -2, -1, 0, -2, -4
1503510983848,1, 14, 6, 0, 1, 0, -1, 0
1503510983855,1, -13, 8, 0, 1, 0, 3, 1
1503510983863,-15, -6, -5, -2, -2, -2, -3, -11
1503510983878,10, 23, 5, 0, -1, -2, -4, -3
1503510983886,2, 3, 1, 0, 1, 1, 2, 4
1503510983893,-13, -4, -4, -1, 0, 0, -2, -5
1503510983909,4, 12, -1, 1, 0, 0, -1, 0
1503510983915,-3, 7, -1, -1, 0, 1, 0, -3
1503510983923,10, 16, 3, -1, -2, 0, -1, -1
1503510983939,-2, -4, -1, 0, -1, -1, -2, 0
1503510983946,-18, -4, -4, 0, -1, -2, -3, -5
1503510983947,20, -12, -2, 0, -2, -1, -3, 0
1503510983960,-3, -9, -6, -2, -2, 1, -1, -2
1503510983971,-24, -9, 8, 0, 0, 0, -1, -4
1503510983976,-12, -7, -7, -2, -2, -3, -1, 0
1503510983983,2, -13, -1, 2, 0, 0, 1, -1
1503510983997,-15, -1, -1, 0, 0, -2, -1, -3
1503510984006,7, -2, -3, -1, -1, -2, 0, -3
1503510984014,1, -11, -6, 1, 1, 0, -1, -1
1503510984028,-22, -5, 0, -1, -1, -1, 0, -1
1503510984035,-3, 9, 1, -2, -2, 0, -1, -1
1503510984043,0, -6, -2, -2, 0, -1, 1, 1
1503510984057,-9, -11, -3, -3, -2, 0, 0, -2
1503510984065,4, -4, -3, -3, -2, 0, -4, -1
1503510984066,40, 0, -3, 0, 1, -2, -1, 0
1503510984073,-19, -11, 7, 1, 0, -2, -1, -1
1503510984088,-4, 6, 4, 2, -1, 0, -1, 2
1503510984095,8, 23, 4, 0, -1, -1, -2, 0
1503510984106,-15, -18, -6, -3, -1, 0, 1, 2
1503510984118,-8, -11, -5, -3, 0, -1, -1, -1
1503510984125,-7, 8, -3, -1, -1, 0, -1, -1
1503510984133,10, -2, -2, -2, -2, -1, -3, 1
1503510984148,-11, 2, -1, 2, -2, -3, 0, -1
1503510984155,-23, -16, -9, -1, -2, -1, -2, -13
1503510984163,0, 8, -2, -1, -1, -1, -1, 7
1503510984177,8, 7, 6, -1, -1, -4, -1, 3
1503510984186,-1, -8, -1, -2, -2, -3, -2, -6
1503510984193,17, -7, -5, -1, -1, 0, 1, 4
1503510984208,0, 0, 0, -1, -1, -2, 0, -2
1503510984216,28, 13, 6, 0, -1, 1, 0, 0
1503510984224,-21, -3, -2, -1, 0, 0, -1, -2
1503510984242,2, -3, -2, 2, 0, -1, 1, 0
1503510984245,1, 13, -6, -2, -2, -1, 1, 5
1503510984253,5, -2, 0, 1, 0, 0, 0, 2
1503510984268,5, -15, -2, -1, -1, -2, -1, 15
1503510984276,-2, 6, -1, 0, -1, 0, 1, 8
1503510984284,-24, -7, -1, 0, 0, -1, 0, -15
1503510984297,-17, -3, -5, -3, -1, 0, -1, -6
1503510984307,8, 4, 4, -1, -2, -1, 0, -1
1503510984313,-1, 6, 1, -2, -2, -1, -1, -4
1503510984328,7, 9, 4, 1, 0, -2, -2, -7
1503510984335,6, 0, -6, -2, -3, -1, 1, -1
1503510984343,-4, -8, -3, 0, 0, 0, 0, 2
1503510984358,14, 19, 9, -1, -2, -3, -7, -6
1503510984366,-1, -2, -1, -1, -2, -1, 0, -8
1503510984374,-1, -8, -5, -2, -2, 1, 1, 2
1503510984388,-6, -1, -2, -1, 0, 0, -1, -1
1503510984395,-11, -4, -1, 1, -1, -1, -1, 0
1503510984403,2, 3, 4, 0, 1, 1, 1, -1
1503510984418,-3, -8, -6, -4, 0, 1, 1, 0
1503510984425,6, 18, 3, 0, -1, -1, 0, 5
1503510984433,11, 4, 3, 1, -1, -3, -1, -1
1503510984449,5, -6, -5, -1, -2, -1, 1, 1
1503510984455,-11, -12, -4, 1, 3, 1, 1, -3
1503510984463,-18, -7, 0, 0, 0, -2, -2, 3
1503510984478,-11, -1, 0, -3, -2, 0, 0, -3
1503510984480,6, -3, -4, -1, -2, 1, -3, 8
1503510984486,14, 0, 0, -2, -1, 1, -2, -13
1503510984493,-17, -1, -1, 0, -2, -1, 1, 7
1503510984510,1, -3, -2, -1, -1, -3, -1, 0
1503510984515,0, 0, -1, -2, 0, -2, -2, -8
1503510984523,-1, -1, -1, -2, 2, -1, 0, 6
1503510984537,14, 14, 3, 1, 0, -1, 0, -5
1503510984546,22, 16, -6, -5, -2, 1, -2, -2
1503510984561,16, 12, 0, -2, -1, -1, -2, -4
1503510984568,1, -8, 1, 2, 0, -3, -2, -7
1503510984577,13, -3, -5, -2, -1, -3, -1, 5
1503510984590,3, 0, 2, -1, 0, -1, 0, 0
1503510984597,-4, -3, 3, -5, -11, -3, -3, -8
1503510984605,14, 2, 0, 5, 16, -1, -4, -3
1503510984606,15, -5, -1, 4, 7, -1, 1, 1
1503510984620,-10, -3, 3, 0, -5, -4, 0, 3
1503510984628,2, -4, -1, 1, 0, -1, -2, -1
1503510984635,-18, -5, -1, 1, 0, 1, -2, 1
1503510984651,-8, -3, -2, -1, -3, -1, 0, -2
1503510984657,-10, -3, 3, 2, 4, -1, 0, -3
1503510984665,-2, -2, -5, -3, -4, -2, -2, -3
1503510984681,2, 18, 20, 6, 5, 0, 0, 2
1503510984688,-12, -3, -2, -3, -4, -4, -1, -4
1503510984695,10, -4, -15, -2, -3, -2, -3, -4
1503510984712,21, 9, 4, -2, -3, -1, 0, -12
1503510984719,-28, -22, -7, -3, 1, 0, 4, 5
1503510984725,-1, -12, -3, 0, 1, 2, 3, 18
1503510984743,3, 3, -1, 0, -3, -4, -2, -2
1503510984748,6, 2, -4, -3, -4, 1, 1, 10
1503510984749,-10, 0, 3, 2, 3, 1, 2, 1
1503510984756,-15, -10, -5, -4, -1, 1, -3, -29
1503510984771,20, -2, 1, -5, -4, -1, -2, 19
1503510984778,-24, -14, -6, 0, 6, -2, -1, -2
1503510984786,-7, 4, -1, 6, 11, 6, -4, -12
1503510984800,70, 13, 2, 2, 6, 4, 0, 9
1503510984810,-48, -7, -4, -6, -15, -7, -2, -3
1503510984816,-24, -5, -1, -1, -3, -2, 0, 0
1503510984830,28, -5, -2, -2, -9, 0, 0, -7
1503510984838,31, -10, -5, -8, -26, -1, -3, -4
1503510984846,-2, -1, -3, 6, 28, 8, 2, -13
1503510984860,14, 6, 5, 2, -4, 3, 11, 17
1503510984868,-14, -4, -2, -4, -2, 2, 2, -32
