1503958514023,1, 2, 4, -4, -1, -2, -1, -5
1503958514031,1, 0, 2, -2, 1, -3, -2, 0
1503958514039,0, 0, 1, -1, -1, -1, 0, -2
1503958514052,6, -1, 4, -7, -3, -1, 0, 1
1503958514060,0, -3, -2, -2, -2, -1, -1, -1
1503958514069,-7, -2, -1, 0, 0, -1, -2, -7
1503958514084,0, 0, 1, -2, 0, 0, -2, -1
1503958514090,-3, -2, -2, 3, -1, 0, 1, -2
1503958514098,0, 1, 3, -5, 3, -1, -1, 0
1503958514112,-1, -2, -5, -1, -2, 0, 1, 1
1503958514120,-3, -4, -1, 2, -1, 1, 1, 2
1503958514127,-1, 2, 0, 1, 1, 0, -1, -1
1503958514143,5, -1, -1, -5, 0, -1, -1, 3
1503958514150,1, -2, 2, -4, -2, 0, -1, -2
1503958514158,-6, 3, -1, 3, -1, 0, -1, -1
1503958514172,0, -3, -6, 2, -3, -2, -2, -2
1503958514181,-3, -1, -1, -3, -3, -2, 0, -3
1503958514187,-1, 0, -1, 1, 0, -1, -1, 1
1503958514202,3, -1, 4, -1, 0, -2, -2, 0
1503958514214,0, -1, 0, -2, 0, -1, 1, 3
1503958514218,-1, -2, 1, 0, -3, -3, -2, -1
1503958514232,-2, 0, 2, 0, -2, 0, -3, 2
1503958514240,2, -1, 3, -6, 0, 1, 0, 3
1503958514248,-1, -4, 1, -3, -1, -3, 0, -3
1503958514268,3, -1, -2, -2, 0, -1, 0, -3
1503958514270,3, 1, 0, 1, -1, 0, -1, 0
1503958514278,-5, 0, -2, 3, -1, -1, -1, -4
1503958514292,-1, 2, 3, -5, 2, 1, -2, -4
1503958514300,-5, 1, 0, 2, -1, 0, -1, -3
1503958514308,2, 0, -3, 1, -1, -1, 1, 3
1503958514323,-1, 0, 2, -1, -1, -2, -1, -3
1503958514330,-2, -2, 0, -1, -3, -1, 0, -4
1503958514338,-1, -1, -2, -1, -2, 0, -1, -1
1503958514353,3, -2, 3, -10, -2, -1, 0, 2
1503958514361,-2, 3, -4, 1, 0, -1, 0, -3
1503958514367,-4, 1, 0, -2, -2, -1, 0, -3
1503958514382,0, -2, -3, -1, -2, 1, 0, 0
1503958514390,0, -1, 2, -1, 0, -1, -1, 3
1503958514398,-1, -3, 1, -2, -3, -1, -1, -3
1503958514414,1, 1, 0, 0, -2, -2, -1, 3
1503958514420,1, -5, 2, -1, 0, 0, 0, 1
1503958514428,-3, 3, -2, 4, 0, 0, 0, -3
1503958514442,1, 2, -3, 2, -1, -2, -1, 5
1503958514450,-5, 0, 1, 1, 0, -1, 0, -3
1503958514458,2, -2, 2, -3, 0, -2, 0, -2
1503958514472,1, 1, -1, -1, 0, -2, -1, -3
1503958514480,-10, -4, 1, 0, -1, 1, -1, -6
1503958514487,-1, -3, -4, 4, 0, 0, 0, -9
1503958514502,0, 1, -4, 0, -1, -1, -2, 0
1503958514510,-1, 3, -7, 6, -2, 0, 0, 5
1503958514525,0, -1, -3, -1, 0, 0, -1, -1
1503958514532,-3, -2, 1, -2, 0, -1, -2, -3
1503958514547,0, 0, 3, -5, -1, 0, 0, 1
1503958514549,2, 0, 1, -6, -1, -2, 2, -1
1503958514562,1, -1, 3, -7, -1, -1, -1, 2
1503958514570,-6, 1, 1, -1, -1, -1, -3, 0
1503958514582,-1, 0, -2, 2, -1, 0, 0, 2
1503958514593,-2, -3, -5, 2, 0, -2, 1, -3
1503958514600,1, -3, 4, -6, 0, -1, -2, 0
1503958514607,0, -2, 0, -3, -2, 0, 0, 1
1503958514622,-2, 1, -6, 6, -3, -1, 1, -4
1503958514630,3, 0, 1, -3, -4, 0, 0, 2
1503958514647,-7, 1, 0, 0, 0, -3, -1, -5
1503958514648,3, -1, 4, -7, 3, 0, -1, 4
1503958514652,1, -1, 2, -2, -1, 1, -1, 0
1503958514660,-3, -1, 1, -1, -4, 1, -2, 0
1503958514676,-3, -2, 0, -1, 0, -2, -1, -2
1503958514683,-1, 6, -5, 5, -1, -3, 0, -1
1503958514690,2, -2, 1, -1, -1, -1, 1, 4
1503958514705,1, 3, 3, -4, -1, 0, -2, 2
1503958514714,-2, -1, -4, 3, 0, -1, -1, -3
1503958514720,0, -3, 1, -1, -1, 0, 0, 4
1503958514734,-1, -3, 0, -6, 1, 0, -1, -3
1503958514742,-6, -4, 0, 4, 1, -1, -2, -8
1503958514751,6, -3, 12, -13, 1, 0, 1, 0
1503958514765,3, 0, 3, -6, -1, 1, 0, 2
1503958514772,2, 1, -2, 3, 0, 0, -1, 1
1503958514782,2, -4, 6, -10, -1, 0, 0, -1
1503958514794,-4, 0, -1, -1, -1, 0, 0, 3
1503958514803,-5, 0, -1, -1, -2, -1, 1, -6
1503958514810,-2, 2, 2, 4, 1, -1, 1, -3
1503958514811,-4, 0, -2, 0, -1, -2, -2, -6
1503958514825,0, 1, -4, 0, -1, -1, 0, -8
1503958514832,-4, 0, 1, -4, 0, 0, -1, -2
1503958514841,1, -2, -3, 4, -1, -2, 0, 1
1503958514855,5, -4, 3, -3, -2, -2, -1, 6
1503958514866,2, 1, -1, -1, 1, -1, 0, 4
1503958514870,-1, 3, -4, 3, -1, -2, 1, -1
1503958514885,-2, 1, -1, 3, 1, -2, 0, 2
1503958514893,3, 0, 5, -8, -3, -1, -3, 1
1503958514900,2, 0, -1, -2, -3, 0, -1, 3
1503958514916,-4, -1, -3, 1, -1, 1, 1, 0
1503958514923,0, -2, -4, 2, -1, -2, -1, -4
1503958514930,0, 0, -1, -1, -1, -1, -2, 1
1503958514945,-6, 0, -5, 3, -2, -1, -1, -5
1503958514952,1, -2, -2, -2, -2, -1, -1, 0
1503958514961,-3, -3, -2, -2, -3, -2, -1, -3
1503958514975,0, 3, -2, 2, 0, -1, 0, -2
1503958514983,0, -3, 2, -2, 0, -2, -1, -2
1503958514991,-4, 3, -6, 8, -1, -1, 0, -3
1503958515005,-2, 0, 5, -9, 3, -1, -3, -1
1503958515012,-2, -2, -5, -3, -2, 0, 1, -5
1503958515020,5, 2, 3, -3, -2, 2, -1, 7
1503958515035,-6, -1, 2, -2, -3, -1, -2, -14
1503958515043,0, 0, -6, 7, 0, -1, -1, 0
1503958515050,3, -3, 1, -4, 1, -1, -2, -2
1503958515065,-2, 0, -1, -1, -1, -3, -2, -5
1503958515072,-2, 0, -4, 2, -1, 0, 0, 2
1503958515083,-3, -1, 2, 0, -1, 0, -2, -2
1503958515096,-1, 1, -1, 2, -3, -2, 0, -1
1503958515103,2, -1, 5, -6, -1, 1, 1, -2
1503958515110,-3, -4, -3, 3, 0, -1, -2, -6
1503958515125,-3, -1, -1, 0, 0, 0, -2, -3
1503958515132,0, 0, 1, 2, -1, -1, -1, 5
1503958515140,3, 0, 1, -3, -2, -1, 0, 3
1503958515155,1, 2, 0, 2, 0, 0, -1, 3
1503958515163,3, -3, 4, -7, 1, 0, 1, 3
1503958515170,-4, 1, 1, 0, 0, -1, -1, -9
1503958515185,-2, 2, -5, 6, 0, -2, 0, 2
1503958515192,2, -1, 0, -7, 1, -1, -1, 7
1503958515200,2, 0, -5, 1, -2, -2, -1, 1
1503958515218,3, -3, 5, -9, -2, 0, -1, 4
1503958515223,-2, -2, -1, -3, -2, -1, -1, -2
1503958515230,-3, -3, -1, 2, -1, 1, 0, -4
1503958515245,1, -1, 2, -3, 0, 0, -1, -2
1503958515253,-1, -3, 4, -4, 0, -2, -2, 3
1503958515262,-7, -2, 0, -2, -1, 0, -1, 0
1503958515275,-2, -2, 2, -1, 0, 1, -1, -2
1503958515285,-2, -2, 0, 1, -2, -3, -2, -2
1503958515290,-3, -1, -3, -1, -3, -2, -3, 0
1503958515305,-8, 1, -3, 6, 1, -1, -1, -6
1503958515312,1, 2, -1, 0, 0, -2, 0, -1
1503958515321,2, 3, 3, -2, 0, 0, -2, 4
1503958515335,-2, -3, -2, 5, -1, -1, -2, -3
1503958515344,-4, 0, -3, 0, -2, 0, 1, -4
1503958515352,3, 4, -3, -2, -2, -1, 0, 1
1503958515365,0, -2, 0, -4, 2, -1, -2, 0
1503958515372,-4, 3, 2, -3, 2, -1, -2, -3
1503958515373,-2, -1, -1, -2, -2, -4, -1, 2
1503958515380,3, -1, 1, -2, -3, -1, 0, 0
1503958515395,-3, -1, -2, 3, -1, 1, -2, -6
1503958515403,-2, 2, 0, 3, -1, -1, -2, 0
1503958515410,0, -2, 0, -2, -1, -1, 1, -4
1503958515425,1, -3, -1, -2, -3, 1, 0, -2
1503958515432,3, 1, 1, -4, 0, -1, -1, 5
1503958515440,2, -5, 7, -10, -3, -2, 1, 0
1503958515455,0, -2, -4, 1, -1, -1, -1, 2
1503958515463,3, 3, 1, -3, 0, 0, -2, 3
1503958515470,-2, 1, -2, 1, -1, 0, 1, -2
1503958515486,-2, 1, -1, -2, 0, -1, -1, -3
1503958515492,-7, -2, 1, 2, 0, 0, -1, -4
1503958515500,-2, 0, -2, 0, 1, -1, 0, -1
1503958515515,1, -1, 1, -1, 0, 0, 0, -1
1503958515523,-4, -1, -1, 1, -1, 0, -1, -3
1503958515530,-1, 2, 3, -2, 2, 0, 1, 1
1503958515545,1, 1, -1, 0, -1, -2, -2, 2
1503958515553,-1, -2, 2, -4, 2, -1, -3, 1
1503958515567,-2, 2, -8, 3, 1, -1, 1, -4
1503958515575,1, -2, -1, -2, 1, -2, -2, -2
1503958515583,-2, 1, -1, -1, -3, -1, -1, -2
1503958515596,1, 0, 3, -6, 0, 0, 0, -3
1503958515605,-2, 0, -2, -1, -3, 0, 0, 2
1503958515612,-2, -2, 2, -1, -3, -1, 0, 2
1503958515627,1, -5, 2, -1, -2, 2, -1, -3
1503958515635,-1, 1, -3, 0, -2, -2, 1, -3
1503958515643,-3, -1, -2, 1, 0, -2, -2, -3
1503958515657,1, 0, -2, -3, -1, -1, 1, -4
1503958515665,-1, -1, 3, -2, 2, 0, 0, 3
1503958515672,-4, -3, 4, -8, 1, 0, -1, -3
1503958515687,1, -4, -2, -2, -2, 0, -1, -1
1503958515688,-1, -3, 0, -1, -1, 1, 0, 0
1503958515695,3, -1, 1, -4, -2, -1, -2, 3
1503958515703,-3, -1, 3, -1, 0, -2, -1, -2
1503958515717,6, -1, 6, -6, 0, 0, 0, 6
1503958515725,4, -2, 1, -6, -2, -2, 1, -7
1503958515732,-5, -1, -3, 2, -3, -1, -3, 1
1503958515747,2, 0, -4, 1, 0, 0, 1, 2
1503958515755,-5, -2, 1, -3, 0, 0, 0, -5
1503958515763,-4, 2, -5, 5, -3, 0, -1, -2
1503958515776,2, 2, -3, 2, -2, -1, 0, 4
1503958515784,-2, -4, 6, -10, 1, -1, 0, -1
1503958515799,-3, -1, -1, 1, 1, -2, -2, -6
1503958515807,2, -4, 6, -5, -1, -1, -1, -3
1503958515825,-3, 0, 0, -1, 1, -1, -1, 1
1503958515836,2, -1, 1, -5, -1, -1, -1, -1
1503958515845,0, -1, 0, -2, 0, -1, -2, -3
1503958515852,-1, 3, -1, 2, 0, 0, 2, 2
1503958515867,-7, -3, -3, -1, -2, -1, -4, -6
1503958515874,-1, 0, -4, 2, 0, -1, 1, -1
1503958515883,-1, 0, 2, 1, 1, 0, 0, -2
1503958515897,2, 0, 3, -6, 1, 1, -1, 0
1503958515904,-2, -1, -4, 1, -2, -2, 0, 3
1503958515912,-1, 0, -2, 4, -2, -1, -1, 0
1503958515927,1, 1, 0, 0, 0, -1, -2, -1
1503958515934,3, -4, -2, 2, -1, -1, -2, 3
1503958515943,-1, 2, -1, -1, -3, -1, 0, -1
1503958515957,-5, 0, -1, 1, -1, 1, 0, -2
1503958515965,-4, -6, 5, -2, 1, -2, -1, 2
1503958515972,-3, -4, -1, -3, -1, 0, -2, -5
1503958515995,-3, 2, -2, -2, -3, -2, -3, -5
1503958515997,1, -5, 2, -5, 1, -2, -1, 3
1503958516003,-1, -2, -1, -1, 0, 0, 0, -1
1503958516016,0, 2, 2, -4, 0, -1, -3, 0
1503958516029,0, 4, 0, 3, -3, -1, 0, 0
1503958516033,-5, 0, 1, 0, 0, 1, 1, -3
1503958516047,-2, -1, -6, -2, -1, 0, -1, -3
1503958516055,-1, 1, -1, 0, -1, -1, 0, 2
1503958516063,-1, -2, 2, -3, 0, -1, -2, 0
1503958516079,-1, -2, -2, -2, -2, -2, 0, -2
1503958516086,0, 3, -4, 2, 3, -1, 0, -1
1503958516096,-2, -2, -4, 2, -3, 0, -2, -1
1503958516107,0, 2, 1, -2, -3, -2, 0, -2
1503958516115,3, 0, -1, -1, -1, 0, 1, 2
1503958516125,1, 0, 3, -4, 0, -2, 0, -1
1503958516137,0, -1, 1, -4, 1, 0, -2, -1
1503958516145,0, 2, -2, 1, -4, -1, 0, -1
1503958516152,1, 0, -4, 5, -1, -1, 0, -2
1503958516168,2, -2, 6, -7, 0, 1, -1, 5
1503958516182,0, 2, 1, 0, -2, -2, -1, -2
1503958516183,-1, -1, -4, 2, 2, -1, -2, 0
1503958516201,1, 2, 6, -5, 1, -1, 1, 1
1503958516205,-1, 2, -2, 3, 0, -1, 1, -2
1503958516214,-2, 0, -2, 1, -2, -1, -1, -1
1503958516227,-2, 0, -2, 3, 0, -1, 1, 0
1503958516235,-1, -1, 2, -3, -2, 0, 0, 1
1503958516243,0, 1, -4, 2, -2, 0, -1, 1
1503958516258,1, -2, -1, 1, 0, 0, -1, 0
1503958516265,4, -2, 4, -6, -5, 0, -1, 2
1503958516272,-5, -5, 3, -6, -2, -2, -4, -5
1503958516287,-3, -2, 0, 1, -2, -2, -1, -4
1503958516295,-1, 1, -2, 3, -1, 0, 0, 2
1503958516303,-2, -2, 0, -2, 0, -2, -1, 0
1503958516316,-5, 1, -5, 1, -2, 0, 1, -5
1503958516325,7, 5, 4, -2, 0, 0, 0, 5
1503958516332,-1, 0, -3, -1, -1, -3, 0, -3
1503958516347,-3, -3, -4, 0, 0, 0, 0, -5
1503958516354,-2, -2, 3, -4, 0, -1, 0, 0
1503958516363,-1, -3, -3, 1, -1, -1, 0, -4
1503958516377,3, 1, -3, 1, 2, -1, 0, -2
1503958516385,0, 2, 2, -1, 0, -1, 0, 3
1503958516393,-3, 1, -6, 6, -2, 0, -3, 1
1503958516407,-2, -4, 0, -4, -1, 2, -2, 1
1503958516416,-1, -2, 3, -3, -1, -2, -1, 1
1503958516423,1, -6, 5, -9, -1, -1, 0, -1
1503958516436,0, -1, -1, 1, -1, 0, 0, 0
1503958516437,1, -1, -3, -1, 0, -1, -1, -2
1503958516445,-4, 0, 1, 1, -1, -1, -1, -4
1503958516452,1, -4, -1, -2, -2, 1, 0, -3
1503958516468,-1, 1, -4, 3, -1, -1, -1, 2
1503958516474,-2, 0, 2, -3, -2, -2, 0, -1
1503958516489,4, 3, 0, 1, 2, -1, -1, 1
1503958516490,-1, -1, -1, -2, -2, -1, 0, 1
1503958516497,3, -1, 2, -4, -1, 0, 0, 1
1503958516505,-3, 1, 1, -2, -1, -1, -1, -2
1503958516519,-1, -1, -4, -1, 0, 0, -2, -4
1503958516529,-7, -2, -5, 6, -3, -3, -1, -5
1503958516535,-3, -1, -1, -1, 1, -2, -1, -1
1503958516550,-1, 0, -4, 1, 1, -1, -1, -16
1503958516556,-4, 2, 1, -1, -1, 0, -1, -1
1503958516565,0, -5, 7, -5, 2, 0, -1, -3
1503958516579,1, -2, 4, -5, 0, -1, -1, 0
1503958516587,2, 5, -3, -1, 2, 0, -1, 6
1503958516595,-4, -4, 1, -5, -2, -3, -1, 1
1503958516610,2, -1, 1, -4, 0, -2, -1, 1
1503958516616,-1, 1, 3, -2, 0, -2, 1, 1
1503958516625,1, -4, 0, -4, -4, 0, 1, 1
1503958516639,-3, 2, -2, 1, -2, -1, 1, -2
1503958516647,-4, 0, -2, 5, 2, 0, -2, 4
1503958516654,1, 0, 1, 1, -1, -1, 0, 1
1503958516670,-4, -4, 4, -9, -2, 0, -1, -4
1503958516676,0, -1, -3, 1, 0, 0, 0, 0
1503958516685,5, 3, 2, -1, 0, 0, 0, 6
1503958516699,1, -3, 3, -5, 0, -2, -2, -2
1503958516707,-4, 3, -6, 4, -2, -2, 1, -2
1503958516714,2, -2, 6, -7, 0, 1, -1, 7
1503958516730,-2, -3, -2, 0, 0, -2, 0, -2
1503958516737,-4, -2, -1, 3, -3, -1, -1, -2
1503958516745,1, 0, 2, -4, -1, -1, 0, 3
1503958516765,2, -1, -5, -2, 0, 1, 0, 3
1503958516767,-3, -2, 0, -2, -1, -2, -2, -4
1503958516775,0, -2, 3, -5, -1, -1, -1, -2
1503958516790,2, 3, -8, 2, -2, -1, -1, -1
1503958516797,-1, -3, 3, -7, -1, -1, -1, -2
1503958516805,4, -2, 3, -8, 0, 0, -1, 0
1503958516819,-4, 1, -3, 6, -2, -1, -1, -6
1503958516829,1, -4, 8, -3, 0, 0, 0, 0
1503958516835,0, 1, -2, 0, -1, -1, -2, 0
1503958516850,-3, 4, -4, 4, 0, -1, -1, -2
1503958516857,3, -3, 4, -6, -1, -1, 0, 7
1503958516865,-5, -2, 3, -2, -1, -1, -1, 0
1503958516879,2, -3, -1, 1, -2, -3, -2, -2
1503958516887,2, 1, 0, -1, -2, -2, 1, 3
1503958516896,-2, 1, -2, 3, -1, -2, -1, 0
1503958516910,0, 0, -4, 3, 0, -1, -2, -1
1503958516917,1, 2, -5, 0, -3, 1, 1, -1
1503958516925,-4, -1, -1, 0, 0, -1, -1, -8
1503958516939,-5, -3, -3, 2, 0, -1, -1, -3
1503958516948,1, -1, -2, -1, -2, 0, -2, -1
1503958516955,1, 1, 0, -1, -1, -1, -1, 1
1503958516972,-2, -2, -1, -1, -1, -2, -1, -1
1503958516976,0, 4, -5, 2, 0, -1, 0, -6
1503958516977,-2, -2, 3, -4, 0, -2, -1, -1
1503958516986,-2, -1, 2, -3, -2, -1, -1, 4
1503958517000,-2, -1, 0, -1, 0, -2, -3, -4
1503958517007,2, -2, 5, -7, 3, 1, -1, 0
1503958517015,-2, 1, -2, 2, 1, 0, -1, -5
1503958517031,-4, 2, -2, 2, -3, -3, 0, -5
1503958517037,3, 1, 3, -1, 2, 1, 1, 6
1503958517046,1, -1, 0, -2, -1, 0, -1, 1
1503958517059,-4, 2, -5, 4, -1, 0, 0, 0
1503958517068,0, -3, -2, -1, 1, 0, 1, -2
1503958517083,1, 0, 5, -5, -2, -1, -2, -1
1503958517091,-1, -5, 5, -8, -2, 0, -1, -5
1503958517105,-1, -1, -2, 1, 0, -2, 0, -3
1503958517106,0, 4, -4, 2, -1, 0, -2, -2
1503958517119,-2, -3, -1, -8, -1, -1, 0, -2
1503958517128,2, 3, 0, 1, 0, 1, 0, 3
1503958517135,-1, 3, -7, 6, -1, 0, 0, -2
1503958517150,-1, -3, 0, -3, 1, -1, -1, -1
1503958517157,-5, -5, -1, 3, -1, -3, -1, -5
1503958517165,-1, 0, -1, 1, -1, -2, -1, 0
1503958517179,3, 0, 0, -3, 1, -1, 1, 5
1503958517187,-7, 1, -4, 6, -1, -2, -2, -1
1503958517195,2, -1, 2, -3, -1, 0, -1, -3
1503958517210,1, -1, 0, -3, -1, 1, 1, 3
1503958517216,1, 0, 1, -5, -1, -1, -1, 0
1503958517225,5, 0, 2, -4, 0, 0, -1, 2
1503958517240,-1, 2, 3, -5, 0, -1, -2, -2
1503958517247,-2, 0, 5, -4, -2, -1, 0, -1
1503958517255,-1, 0, -1, -1, -1, 0, -1, -5
1503958517270,2, -3, -3, 0, -2, -3, 1, 0
1503958517277,0, -2, -6, 4, -4, -1, 1, -1
1503958517285,-2, -2, -1, 0, -3, -3, -2, -1
1503958517300,1, 0, -1, -2, -2, -2, -2, -3
1503958517307,-1, 0, 2, -4, 0, -1, -2, 1
1503958517315,-4, -2, 2, -3, -2, 0, -3, -4
1503958517330,1, -1, 3, -4, 0, 0, -2, 0
1503958517336,0, -1, 1, -1, 2, 0, 0, 2
1503958517346,-3, -4, -6, 0, -2, -2, 0, -2
1503958517359,0, 0, 1, -3, 0, 0, -1, 1
1503958517367,-3, 4, -4, 4, -1, 0, 1, -6
1503958517382,-2, -7, 7, -8, -3, 0, -2, -11
1503958517390,0, -1, 1, -2, -1, -2, -1, 1
1503958517396,4, 1, 3, -7, 0, 0, -2, 6
1503958517405,1, -2, -1, -2, -2, -2, -1, -4
1503958517419,-2, 0, -1, 1, 0, 1, 0, 4
1503958517427,-1, -1, 0, -1, 0, -1, 1, -1
1503958517442,-3, 3, -6, 6, -3, -3, -1, 0
1503958517450,-9, 2, -6, 10, 1, -2, -2, -6
1503958517457,2, 0, 4, -5, 1, 0, 0, 1
1503958517472,-1, 2, 0, -4, -1, 1, 1, -1
1503958517479,-1, -2, 1, 2, -1, -2, 0, 1
1503958517487,4, -2, 5, -3, 2, 0, -1, 4
1503958517502,-1, -4, -2, 0, 0, 0, -1, -1
1503958517510,-4, -1, -1, 2, 0, 0, 0, -2
1503958517516,-5, -1, -2, 1, 3, -3, 0, 2
1503958517533,0, -3, -4, 2, -3, -1, 0, -1
1503958517539,-5, -1, -5, -1, -2, -1, -1, -5
1503958517547,3, -1, 3, -4, -2, -1, -1, 3
1503958517561,-2, -1, -2, 0, 0, 0, 0, -4
1503958517570,2, -2, 0, -2, -2, 0, 0, 3
1503958517576,-4, 2, 11, -6, 2, 0, 0, -5
1503958517592,-2, -2, 2, -3, 0, -1, -1, 1
1503958517600,-2, -1, 5, -3, -1, 0, -2, 1
1503958517601,-2, 3, -7, 2, -1, -2, -1, -5
1503958517607,-4, 2, -1, 3, 3, 0, 0, -4
1503958517621,1, -3, -2, 0, -2, 0, -1, 1
1503958517630,-1, -1, -6, 3, -3, -2, -1, 1
1503958517636,3, 4, -1, 0, -2, 1, -1, 2
1503958517652,1, -5, -1, -6, -2, 0, -1, -1
1503958517659,0, -1, -1, 0, -1, -1, -1, 1
1503958517668,4, 0, 3, -1, 0, -1, -1, 1
1503958517682,-1, -5, 8, -10, -1, 0, -2, 0
1503958517690,-1, 0, 2, -4, 0, -3, -2, -3
1503958517705,-2, -1, 0, -1, -1, 0, 0, -2
1503958517712,0, 2, -2, 0, 0, 0, -1, 1
1503958517720,1, -2, -3, 2, -1, -2, 1, -7
1503958517727,-1, -5, 4, -7, -1, 0, 0, -2
1503958517744,-1, -1, -2, -2, -2, -2, -2, 0
1503958517750,0, 4, 1, -2, 0, 1, -1, 0
1503958517765,-1, 1, 1, 0, -1, -2, -3, -3
1503958517772,-1, -2, 0, -1, -2, 0, 0, 1
1503958517780,-1, 4, -4, 2, 1, 0, 0, 3
1503958517787,-2, 2, -4, 1, -4, -1, 0, -4
1503958517804,2, -2, -1, -2, -1, -1, 2, 1
1503958517810,3, 1, 1, -2, -3, -2, -1, 4
1503958517811,0, -4, 6, -8, -1, -2, -2, -1
1503958517825,3, 0, -3, 1, 1, -2, -1, 6
1503958517840,-5, 1, -7, 8, -1, -1, -2, -4
1503958517841,0, 0, 0, -3, -2, -1, 1, 0
1503958517847,-3, -2, -3, 0, -3, -1, 0, -1
1503958517863,-2, -3, -3, 2, -1, -1, -1, -5
1503958517870,0, -2, 7, -9, 0, 0, 0, 2
1503958517885,1, -2, -1, 0, -2, -3, -1, 1
1503958517892,-1, -1, -4, 3, 2, -2, 1, 2
1503958517903,3, -1, 1, -5, -1, 0, -2, 3
1503958517907,1, 0, 0, -1, 0, -1, -1, -5
1503958517923,-2, 6, 2, -8, -2, -2, -2, -1
1503958517930,-2, 5, -2, 2, -2, 0, -1, -1
1503958517946,-2, -9, 4, -9, -1, 0, -1, -7
1503958517952,-5, -2, -2, 1, 1, 0, -2, -5
1503958517960,0, -3, 3, 2, 1, 1, 0, 5
1503958517967,4, -12, 8, -10, 2, -1, -1, 2
1503958517983,0, -4, 4, -6, 0, -4, -2, -3
1503958517989,0, 3, -1, 0, 3, 1, -1, 3
1503958518005,-3, 0, 0, 0, -1, -2, -2, 2
1503958518012,-3, -4, 3, 0, -4, 1, -2, -4
1503958518020,-2, 2, -2, 3, -1, 0, 0, -6
1503958518027,1, 0, 0, -2, -1, -3, -4, -3
1503958518043,-5, 2, -3, 5, 3, 0, 1, 2
1503958518058,2, 4, 2, -7, 1, -2, 1, 4
1503958518065,-2, 4, -5, 1, -1, -1, -1, 3
1503958518073,-4, 2, -5, 2, -1, 0, -1, -1
1503958518080,-4, -9, -5, 5, -3, 0, 0, -4
1503958518087,1, -5, -3, 1, 0, -1, 0, 1
1503958518105,3, -3, 3, -3, -2, -1, -1, -2
1503958518110,0, -3, 2, -8, -3, -1, -1, -4
1503958518125,-1, 2, -3, 0, -1, -2, -2, -3
1503958518132,0, 4, 9, -6, 2, 1, -1, 4
1503958518140,2, 0, -1, -2, -1, 1, -3, -2
1503958518147,-2, 1, 0, -2, 0, -2, -1, 2
1503958518163,-2, 2, -3, 7, 2, 0, -2, 0
1503958518171,-2, -4, 2, -2, -1, -1, -2, -2
1503958518185,-1, 1, -4, 2, -2, -1, 1, -6
1503958518192,-2, 6, -5, 3, -1, -2, -2, -6
1503958518200,0, -1, 1, -4, 0, -2, 0, 1
1503958518207,-1, -3, -3, 5, -3, -2, 1, 3
1503958518222,-1, -5, 4, -2, -1, 0, -2, -3
1503958518230,0, -2, -3, 3, 2, -1, 0, 0
1503958518245,0, 2, -2, 3, 0, -1, 0, -2
1503958518246,-4, -5, -1, -3, -3, -1, -2, -1
1503958518252,-1, 1, -5, 1, -2, 0, 0, -2
1503958518260,0, 5, 0, 4, 1, 0, 1, 1
1503958518267,5, 0, -3, 2, -1, -1, -1, 7
1503958518283,-2, -3, 1, -5, -1, -1, 0, -3
1503958518289,-1, -2, -1, -3, -2, -1, 1, -1
1503958518307,5, 1, 2, -3, 0, -1, -1, 3
1503958518312,-4, 1, 0, -1, 1, 0, 0, -5
1503958518320,2, 6, -1, 1, -2, -2, -1, -1
1503958518327,-1, -2, -1, 2, -2, -1, -3, -1
1503958518343,-5, -7, -2, -1, 1, -1, 0, -3
1503958518350,5, 0, -2, -1, 0, -1, 0, 3
1503958518365,0, -3, 0, -3, -2, 0, -3, 4
1503958518373,0, 2, 4, -6, 0, 0, 0, -2
1503958518388,-1, -2, 2, -5, 1, 1, 1, 1
1503958518394,3, 1, -2, 4, -1, 0, -1, 1
1503958518403,-3, 3, -1, -3, -1, -1, -1, -6
1503958518410,0, -4, -1, -2, -4, -3, 0, -3
1503958518425,-2, 4, -7, 7, 0, -2, -2, -3
1503958518432,-7, -1, -2, 2, -1, -1, -2, -4
1503958518440,-3, -1, 3, -6, 0, -1, -3, 0
1503958518455,0, 8, 4, -2, 2, 0, -1, -6
1503958518463,3, -3, 1, -1, -1, 0, -1, 0
1503958518469,-5, -6, 3, -2, -1, -1, -1, -2
1503958518484,-3, -4, 0, 1, -2, 0, 0, -2
1503958518492,0, -6, 2, -1, 0, -2, -1, 2
1503958518500,-1, -5, 2, -7, -1, -2, -1, -2
1503958518516,-5, 0, -7, 5, -5, -2, -1, -4
1503958518522,-6, -1, 2, 0, -3, -1, 0, -3
1503958518529,-3, -4, -6, 2, 1, 0, 1, -2
1503958518545,2, 1, 3, -4, -3, 1, 1, -4
1503958518552,-3, 0, 3, 1, 0, -2, -1, -1
1503958518560,4, 2, 5, -11, 0, -1, -2, 2
1503958518575,3, 1, -3, 1, 0, 1, 0, 0
1503958518583,-2, 3, -8, 8, -2, -2, 1, -1
1503958518589,0, 3, 2, -3, -2, -1, 0, 4
1503958518604,1, 5, 2, -5, 1, 1, -2, 7
1503958518612,1, 1, 10, -11, 3, 1, -2, 4
1503958518620,2, -3, -1, -2, -1, 1, -1, -1
1503958518634,1, -9, 0, -5, -3, 0, -2, -5
1503958518646,2, -1, -1, 0, 0, -1, 0, 2
1503958518650,1, 0, 1, -4, -4, -1, 0, 5
1503958518664,-1, -2, -5, 2, -4, 0, -2, -2
1503958518679,1, -4, 4, -7, 1, 0, 0, 3
1503958518681,-3, -2, 0, -1, 2, -2, 0, -1
1503958518694,-1, 1, -3, 2, -3, 1, -3, -5
1503958518702,-1, -3, 4, -1, -1, 0, -2, -1
1503958518709,-2, -2, 0, -3, -1, 0, -1, 1
1503958518710,0, -1, 0, 2, 0, 1, 0, 2
1503958518724,0, 1, -1, 3, 1, -1, 1, 2
1503958518732,-6, 1, -7, 5, -2, -1, 1, -7
1503958518743,-1, 0, -2, -1, -3, -1, 0, -7
1503958518754,-1, 2, 0, 2, -2, -2, 0, -1
1503958518755,1, 2, -8, 7, -1, -1, -3, -3
1503958518762,-2, 6, 0, -1, -1, -2, 0, 0
1503958518769,-1, 1, 2, 1, -1, -1, -2, -2
1503958518785,-3, -7, 3, -9, -1, -4, -1, -3
1503958518792,1, -2, 3, -4, 2, -3, 0, 0
1503958518800,-3, -3, -4, 4, 1, -1, -1, -3
1503958518815,-10, -3, -2, 1, 0, 1, -1, -8
1503958518822,-3, -1, 0, 1, -4, 0, -2, 2
1503958518829,0, 2, -2, 0, 1, -1, -1, 3
1503958518845,0, 1, -6, 3, -1, 1, 0, 1
1503958518852,4, -3, 4, -9, -2, -1, 0, 3
1503958518860,0, 1, 2, 2, 1, 1, -1, 1
1503958518877,3, -1, 1, -5, -2, 0, 0, -3
1503958518882,-3, -1, -1, 2, 1, -2, -2, -1
1503958518889,-1, -2, 1, -2, -1, -1, -2, -1
1503958518905,-2, 5, -5, 3, 0, 1, 0, 0
1503958518913,2, 0, -2, 3, -2, -1, 0, 1
1503958518921,-2, -3, 2, -6, 1, -1, -1, -2
1503958518934,-4, 1, -1, 2, -2, 2, -1, 0
1503958518947,2, 1, 0, -2, -3, -2, -1, -3
1503958518949,-2, 0, -1, -1, 2, -1, -1, 1
1503958518965,-2, -6, 2, -7, -2, -2, -1, -3
1503958518972,-1, -1, 0, 1, 0, -1, 1, -3
1503958518989,3, -2, 4, -4, -1, 1, -2, 4
1503958518997,-3, 1, -2, 2, -3, -4, -2, -1
1503958519002,0, 0, -1, -4, -2, 0, 0, 0
1503958519010,4, 1, 1, -3, 0, 0, -1, 4
1503958519025,-1, -1, 0, 2, -1, -2, 2, -3
1503958519032,-3, 0, -1, 2, -2, -2, -2, -4
1503958519040,1, -3, 1, -2, 0, 2, -3, 2
1503958519055,-2, -3, -5, -2, -1, -1, -2, -8
1503958519063,-2, 1, -1, 0, 0, -2, -1, -1
1503958519070,-8, -5, -2, -3, 0, 1, -3, -10
1503958519086,-4, -2, -2, 0, 0, -2, -1, -4
1503958519092,-2, 2, 5, -2, 0, -2, 0, -1
1503958519101,4, -1, 1, -5, 0, -2, 1, 2
1503958519115,2, 2, -1, -4, -4, -1, 0, -2
1503958519122,0, 1, -4, 0, -3, -2, -3, -8
1503958519129,6, 3, 0, -4, 1, 0, 2, 9
1503958519145,0, -3, -3, 0, -2, -1, -1, 0
1503958519153,-3, -4, 2, 2, -1, -2, -1, -1
1503958519160,-3, -4, 0, -4, 1, 0, -1, -3
1503958519174,5, -2, 3, -4, 0, 0, 0, 3
1503958519183,1, -1, 2, 1, -3, 0, -1, 1
1503958519190,-1, -2, -2, -2, -1, 0, 0, 1
1503958519205,-1, 3, -1, 0, 2, -1, 1, 1
1503958519212,6, -1, 2, -9, -1, -1, 0, -2
1503958519220,0, 2, 1, 0, -2, -1, -1, 1
1503958519234,-5, 2, -1, 1, -3, -1, -1, -7
1503958519242,-6, -2, 1, -2, -1, -1, 2, -1
1503958519250,1, -1, 8, -6, 2, 0, -1, -1
1503958519265,-1, -1, 3, -3, -2, 0, -1, 2
1503958519272,0, 3, -4, 4, -3, -1, -1, 4
1503958519288,-4, -2, -3, 3, 0, 0, -2, -2
1503958519295,0, 1, -1, 0, 1, 0, -2, -1
1503958519302,1, 2, -4, 1, -1, -1, -1, 0
1503958519317,-5, -3, -2, 3, 0, 1, -1, 2
1503958519325,3, 4, -2, 0, -1, -2, 0, 2
1503958519332,0, 0, -1, 0, -1, -1, 0, 2
1503958519347,-2, -4, 1, -2, 0, -1, -2, -3
1503958519355,-1, 0, 0, 3, -7, -2, -2, 0
1503958519362,-1, -5, 3, 7, 3, 2, 1, -1
1503958519377,1, -3, 1, -7, 2, 0, -2, 4
1503958519385,2, -1, 6, -21, 2, -1, -1, -1
1503958519392,15, 1, -1, -21, -3, -1, 0, 2
1503958519407,-21, -7, -8, -8, -5, -1, -5, -8
1503958519415,-7, -6, 2, 1, 3, -1, -1, -7
1503958519422,1, 2, 2, 15, 2, -2, 1, -2
1503958519437,-6, -5, 1, -6, -21, -3, -2, -2
1503958519447,-2, 1, 1, 1, 7, 0, 1, 0
1503958519452,-5, 1, -1, 12, 14, -1, 1, -5
1503958519467,4, -2, -2, -14, -22, -2, -3, -2
1503958519474,5, 3, 3, 14, 27, 3, 4, -2
1503958519483,5, 8, -2, -14, 3, 1, -3, 4
1503958519497,-16, -8, -9, -1, -30, -4, -9, -10
1503958519505,9, 0, 0, 6, -3, -2, 0, 2
1503958519514,5, 4, -2, 21, 19, -1, 4, 1
1503958519527,-4, -5, 3, -9, -4, 0, -1, -3
1503958519534,6, 4, -6, 1, -1, -1, 0, 1
1503958519542,-6, 1, -2, 10, 12, 0, 3, -2
1503958519557,-5, -2, 2, -2, -5, -1, -2, 3
1503958519565,2, 0, -2, 14, 9, 1, 2, 2
1503958519572,4, 5, 2, -14, -6, 0, 1, 2
1503958519587,-9, -2, -2, 8, -1, -3, -3, -6
1503958519594,2, -1, -1, -8, -16, -1, -3, 2
1503958519602,1, 5, -3, -5, -3, -3, -2, 3
1503958519617,3, 3, -7, 11, 3, -2, 1, -2
1503958519625,-9, -2, 3, 2, 11, -3, -2, -4
1503958519632,13, 1, -2, -16, -17, -1, -1, 3
1503958519650,0, -4, 1, -7, -2, -2, 1, -7
1503958519654,-3, -3, 5, 3, 13, -2, -1, -3
1503958519670,-2, 1, -1, -11, -13, 1, 0, 4
1503958519677,-2, 1, -2, -7, -10, 0, -2, -5
1503958519685,-5, -16, -13, 12, 1, 2, 0, 2
1503958519692,1, 6, -6, -2, -4, -5, 0, -3
1503958519707,23, 13, 12, -16, -2, 2, -1, 6
1503958519716,-10, -12, 1, -5, -6, 4, -1, -1
1503958519722,-2, 0, 9, -9, -19, -9, -2, -6
1503958519737,1, 3, 4, 0, 14, -2, 0, -3
1503958519745,-6, 0, 0, 7, 1, 1, -1, 5
1503958519752,1, 10, 1, -6, -4, -3, -1, 2
1503958519767,0, -12, 33, 8, 22, -1, -3, -7
1503958519774,-2, 2, -8, -7, 0, 3, 0, -1
1503958519787,2, 26, -19, -7, -6, 4, 0, -5
1503958519797,-11, -5, 13, 2, 2, -1, 0, 2
1503958519805,-3, 6, -3, 2, -2, 5, 0, 3
1503958519812,-5, 7, -5, -6, 2, 6, 1, -3
1503958519827,4, -7, -1, -3, 8, 0, 0, 3
1503958519834,-6, 8, 5, -6, -23, 23, 0, -4
1503958519842,2, -8, -12, -4, -4, -5, -1, 4
1503958519858,0, -5, 11, -4, -18, -16, -1, 3
1503958519865,2, -7, -17, -6, 3, 2, 1, -2
1503958519872,-9, -15, 7, -2, 4, -3, -3, -10
1503958519887,-1, -1, 1, 7, 19, -8, 1, -5
1503958519894,3, -7, -4, 4, 3, -10, -1, 2
1503958519902,-4, 0, 11, 4, -14, -9, 1, 2
1503958519917,-1, -7, -29, 17, 53, 0, 3, 3
1503958519931,-15, 0, 16, -5, -9, 7, -1, -4
1503958519932,9, -4, -15, 2, 7, 0, 1, 6
1503958519947,5, 11, -8, 0, -19, -7, -1, 4
1503958519955,4, -3, 21, 2, -2, 1, -2, 1
1503958519963,8, -12, 14, -8, 0, -1, 0, 1
1503958519977,10, 5, -9, 4, -31, -10, 1, 5
1503958519985,-7, -15, 4, -13, -15, -14, -3, -8
1503958519992,-2, 3, 23, -12, 24, -10, -4, -2
1503958520007,7, 7, -14, 11, -19, -1, -1, -1
1503958520014,-4, -1, 19, -11, -14, -13, -3, -2
1503958520015,-10, -4, -5, 1, -13, 6, -3, -8
1503958520027,-2, -30, -5, 1, 3, 5, -1, 2
1503958520037,-5, 3, 1, 3, -13, 1, -3, -2
1503958520047,-2, 2, -1, 0, 10, 7, -3, -2
1503958520052,-6, -5, -10, -9, -11, -8, 0, -5
1503958520067,5, 13, -4, -13, -3, -1, 1, 3
1503958520074,1, -4, -3, -4, -12, 0, -3, -6
1503958520085,-2, -13, 0, 9, 11, 2, -1, -5
1503958520097,11, -11, 16, -9, 8, 0, -2, 1
1503958520122,-12, -6, 4, -6, 6, -2, -3, -4
1503958520127,1, -9, 2, 1, 10, 6, 2, 6
1503958520134,-7, 1, -7, 2, -6, 4, 4, -1
1503958520135,-8, 4, -1, -8, -14, -23, -5, -9
1503958520149,-4, 11, -2, 10, 2, -15, 1, 2
1503958520157,-17, -2, 13, 5, 49, 7, 6, 13
1503958520166,-6, 19, 34, -11, 3, 3, -5, 2
1503958520172,7, 15, -4, -6, -33, -5, -2, 12
1503958520188,14, -6, 43, -14, 16, 14, -1, 8
1503958520195,-6, 23, -10, 4, 24, 22, 5, -16
1503958520202,17, 34, -43, 0, -25, 9, 2, -4
1503958520219,-4, -2, 28, -3, 34, 14, 0, -15
1503958520225,3, 23, -18, 1, -28, -14, -5, -9
1503958520240,2, 21, -41, 8, 66, 83, 14, 5
1503958520247,12, 23, -53, -4, -81, -73, -15, 7
1503958520255,24, -13, 7, -32, -74, -68, -15, 2
1503958520269,-40, -62, 20, -5, 64, 27, 18, -77
1503958520277,0, -57, -3, 46, -3, -22, 14, -28
1503958520286,50, 0, -111, 43, -102, -88, -2, -16
1503958520299,-10, -3, -50, 18, 32, 19, 16, 43
1503958520307,-26, 32, 96, -37, 121, 126, 11, 127
1503958520314,92, 24, -77, 78, -74, 52, -6, 4
1503958520329,-38, -12, 82, 2, 33, -64, -17, 37
1503958520337,-36, -98, 40, -34, 5, -2, -1, 71
1503958520345,-18, -3, 15, -59, 87, 72, 19, 28
1503958520359,79, 60, -82, -110, -103, -29, -41, -88
1503958520367,-33, 15, -5, 70, -36, 25, -4, -24
1503958520374,-39, -11, 37, 89, -11, 1, 7, -24
1503958520389,18, -20, -14, 22, 4, -18, 2, -45
1503958520397,-28, 1, 50, -34, 37, 6, 5, 5
1503958520405,-1, 7, 19, -4, -52, -38, -7, -15
1503958520420,-17, -22, -43, -26, 26, -15, 2, 10
1503958520427,-7, -22, -10, 1, 16, 20, -10, -51
1503958520434,-3, 21, 19, 0, 29, 10, -15, -8
1503958520449,16, -7, -10, -40, -47, -8, -14, -12
1503958520457,-18, 3, 27, 14, -3, -18, 6, 16
1503958520465,-3, -9, -25, 8, 28, 4, 4, 8
1503958520479,-15, -1, 32, -7, 0, -6, -6, 3
1503958520487,1, 30, -5, -3, 17, 2, 11, 20
1503958520494,-13, -7, 33, 19, 52, 3, 7, 19
1503958520509,10, 4, -11, -15, -56, -10, -5, -24
1503958520517,-4, 15, 8, -6, -36, -20, -7, -25
1503958520525,2, 9, -27, 11, -17, -5, 2, 4
1503958520539,-7, 20, -11, 6, 1, -1, 6, 9
1503958520547,-1, -9, 4, 1, 7, 8, 2, 7
1503958520555,-3, 3, -10, 6, 7, -13, -3, -18
1503958520569,9, 2, 9, -8, 12, -3, -4, -17
1503958520577,6, -32, 25, -13, -13, 1, 0, -9
1503958520585,3, 1, -9, -13, -25, -4, -6, 8
1503958520599,-1, 30, -4, -9, 15, 16, 8, 13
1503958520607,9, 3, 15, -21, -17, -6, -3, 0
1503958520614,-1, 8, -2, -3, -11, -10, -6, -5
1503958520631,-9, -17, 30, 14, 22, 3, -3, 0
1503958520637,-2, -31, 3, 1, 22, 4, -2, 15
1503958520645,-1, -6, 1, 7, -6, -2, -2, -4
1503958520659,-3, -20, 8, -4, 6, -6, 3, -3
1503958520667,-1, -2, -29, 24, 3, 1, 3, 5
1503958520674,-6, 4, -4, -14, -9, -1, 1, 7
1503958520690,-11, 1, 5, 40, 62, 4, 7, 0
1503958520698,7, 4, -4, -26, -38, 8, -5, 9
1503958520705,-8, -15, 6, 8, -3, -11, 2, 8
1503958520719,-11, -49, 12, 4, 12, 4, 1, 2
1503958520727,7, 0, -10, -11, 1, 6, 8, -6
1503958520734,3, -22, -15, 8, -1, -4, -4, 18
1503958520735,2, 21, -13, 5, -1, -3, 2, 4
1503958520750,-8, 0, 3, -14, 2, -1, -3, -10
1503958520757,0, 47, 19, 16, -5, -20, -4, -10
1503958520767,2, 16, -3, -25, -11, 3, -3, -5
1503958520779,3, 5, -5, -13, -14, 10, 2, -1
1503958520788,-7, -2, 7, 7, 6, -7, -8, 0
1503958520796,-3, 11, 6, 16, 10, -14, 0, 10
1503958520809,2, -14, 19, -11, 14, 13, 6, 22
1503958520817,-7, -12, -14, 12, 1, -1, -1, 1
1503958520825,-3, -18, 3, 6, -1, -3, -1, -5
1503958520839,3, 4, 1, 3, 5, 9, -1, -7
1503958520847,3, 3, -16, 10, -9, 2, 0, -9
1503958520858,-16, 8, 4, 19, 35, 8, 4, -2
1503958520870,5, 10, -1, -16, -4, 1, 3, 15
1503958520877,8, 5, 3, -4, -8, -7, -5, 9
1503958520885,-4, 13, 2, 4, -5, -6, -1, -4
1503958520900,-3, -7, -9, 4, 8, -9, -2, -12
1503958520907,1, 1, -1, -3, -6, 2, -4, 5
1503958520921,-8, 0, 13, 6, 24, 4, 4, 0
1503958520922,3, 2, -15, 3, -30, -19, -4, -4
1503958520930,2, 10, 5, -8, -5, 6, -1, 2
1503958520944,9, 0, 1, -12, -3, 3, -2, -2
1503958520946,-3, -10, 1, -3, 1, -4, -3, -6
1503958520961,5, -3, -15, -13, -14, 1, -1, 2
1503958520967,4, -5, -11, -20, -24, 8, 0, -1
1503958520974,-8, -8, 11, 14, 41, 7, -1, -2
1503958520994,-3, -4, -1, 12, 0, -7, 0, 4
1503958520998,0, 4, -23, 1, -2, -6, 0, 4
1503958521005,-3, -5, 4, 4, 10, -4, -2, 8
1503958521019,1, 3, -2, -3, -2, 5, 2, 2
1503958521028,1, -3, -3, -5, -7, -3, -3, -1
1503958521035,-4, -20, 9, -23, -13, -29, -3, 4
1503958521049,10, 6, -2, -29, -51, -5, -9, -5
1503958521058,3, 0, 9, -13, -1, 9, 2, -4
1503958521065,-9, -4, -4, 18, 23, 5, 1, -14
1503958521079,3, 2, -4, 2, -4, 9, -6, -5
1503958521087,-2, -2, -11, -3, 6, 2, -1, -4
1503958521095,-1, 0, 4, 2, -10, 1, 0, -2
1503958521109,-9, -24, 36, 11, 5, -10, -5, -18
1503958521117,0, 5, 1, 3, 1, 5, -3, -2
1503958521126,2, 9, -1, -17, -18, 1, 2, 3
1503958521139,-1, -3, 1, -7, -7, 1, -2, -1
1503958521147,6, 4, -12, -5, -8, -6, -2, 2
1503958521162,-3, 7, 2, 5, -7, 3, 3, -5
1503958521169,-7, -1, -6, 10, 17, -3, 3, -6
1503958521177,-6, 0, 7, 0, 18, 17, 4, -2
1503958521192,5, 2, -10, 1, -10, 2, -2, 10
1503958521199,5, 0, 3, -22, -8, -3, -4, -40
1503958521207,-1, -2, -8, -5, 7, 2, 5, 0
1503958521221,3, 4, -2, 0, -13, 4, 0, 14
1503958521229,0, 8, 7, 0, 2, -4, -1, -4
1503958521237,-5, -15, -4, 3, 3, -16, -8, -2
1503958521252,-6, 4, -6, 13, 15, -2, 0, 2
1503958521259,-1, 1, 0, -9, -1, 5, -2, 2
1503958521267,1, -2, 2, -2, -1, 0, -6, -5
1503958521281,3, 2, -1, -13, -26, -7, 0, 7
1503958521289,-1, 1, 1, 2, 5, -1, 2, 1
1503958521298,-3, 0, 2, -2, 11, -2, 1, 4
1503958521312,-2, -2, -5, -9, -4, 3, 1, -12
1503958521319,-3, 2, 1, 12, 8, 6, 3, -2
1503958521327,0, -5, 0, -2, -2, 0, -4, -5
1503958521341,-1, -1, -3, 1, 11, -3, -1, -6
1503958521349,2, -3, 0, -7, -3, -4, -2, 3
1503958521357,-2, 0, -2, 4, -1, -2, 0, -1
1503958521372,-2, 4, 7, 3, 11, -3, -1, -3
1503958521379,0, -1, -7, 2, 10, 0, -1, 2
1503958521387,-1, 0, -2, 4, -1, -1, 1, 2
1503958521402,-5, 1, 7, 11, 7, 0, -1, -5
1503958521409,-1, -4, -8, 4, -4, -2, 0, 2
1503958521417,0, -1, 5, 1, 3, 0, 2, 4
1503958521432,-2, 2, 8, -9, -1, -1, 1, 1
1503958521439,1, -1, -6, -11, -7, -4, 3, 5
1503958521447,-5, -1, 12, 5, 1, -2, -1, -1
1503958521463,9, 1, -16, -8, -20, -3, -2, 1
1503958521464,1, -2, -2, 2, 1, -2, -4, 3
1503958521469,-2, 0, 0, 0, -8, -2, 10, 7
1503958521477,4, 3, 6, -2, -1, -3, -8, -1
1503958521499,-7, 1, -4, -2, -5, -2, -8, -5
1503958521507,5, 1, -1, -18, -8, 2, -4, 3
1503958521521,1, 0, -5, 7, -8, 1, -3, 2
1503958521530,1, 0, 0, -1, 0, -1, 0, 0
1503958521537,-9, -1, 7, -14, -8, -2, -1, -5
1503958521552,10, 2, -3, 10, -6, -2, -6, 4
1503958521559,4, -1, 1, 3, -1, -3, -18, 1
1503958521567,-1, -3, -4, 0, -6, -1, -5, -8
1503958521581,1, 4, 18, -17, 8, 3, -1, 2
1503958521589,-9, 1, -1, 1, 1, -1, -4, 1
1503958521590,-3, -3, 1, 0, -8, 2, 4, -4
1503958521597,-16, -11, -6, 5, 2, 4, 0, -3
1503958521612,-6, 4, -2, -1, 4, -2, 6, 4
1503958521619,8, 5, -3, 2, 4, -4, 4, 2
1503958521631,-6, 2, -4, -1, 6, 4, -1, -12
1503958521642,2, 3, -6, -3, -12, -38, 4, 1
1503958521650,2, -5, 25, 1, 5, 0, -3, 3
1503958521657,2, -3, 0, 4, 2, 12, 9, -1
1503958521672,-5, -10, 0, -8, 0, 2, -5, -2
1503958521679,-2, 6, -6, 12, 1, 6, 6, -6
1503958521687,-7, -4, -9, 0, 5, 7, 8, 1
1503958521701,3, -4, -7, 0, -4, -1, 0, -19
1503958521709,3, 13, 9, 2, 2, -8, -7, 1
1503958521717,-2, -1, 0, 2, 1, 4, 6, 2
1503958521735,4, -2, -17, -7, -10, -5, 1, 4
1503958521740,1, -10, 2, -1, 1, 3, -1, 3
1503958521747,3, 2, 13, -2, 9, -2, -4, -1
1503958521764,5, -1, -9, -11, 24, -1, -15, 2
1503958521769,-5, 6, 4, -2, -1, -4, -17, -7
1503958521777,4, -5, -4, 6, -5, 2, 16, -3
1503958521792,-5, -7, -5, -8, -17, 1, -1, -3
1503958521802,-5, 3, -4, -2, -3, 11, 5, 5
1503958521807,-2, -1, -5, 14, -5, 1, 6, -4
1503958521821,0, 3, 0, -3, -10, -1, 1, -8
1503958521830,3, -1, -4, -5, 33, -1, 4, -1
1503958521837,-14, -10, 6, -5, -8, -2, -6, -4
1503958521852,7, -11, -8, 1, -13, -1, 6, 3
1503958521859,-5, -2, 7, -1, -3, -6, -3, 2
1503958521868,1, -9, -1, 0, 20, -7, -6, 6
1503958521881,-6, 28, 6, 2, -7, 0, -3, -1
1503958521889,-13, -9, -8, 4, -8, -2, -2, -4
1503958521899,6, 0, -7, 0, -5, 0, 3, -1
1503958521900,5, 4, 7, -15, 6, -1, -5, -5
1503958521912,5, -2, -4, 0, -8, -2, 1, 3
1503958521919,1, 12, 31, 7, 2, 4, -3, -11
1503958521927,-2, -7, -2, -1, -11, 2, 0, 0
1503958521941,5, -16, -9, -7, 0, -1, -1, 10
1503958521949,-5, -8, 3, -15, -6, -3, -2, -5
1503958521957,4, 15, -8, 0, 7, 0, 1, 8
1503958521973,5, 5, -6, 1, -3, 3, 2, 3
1503958521979,-2, -11, 10, -11, 1, -2, -3, 2
1503958521987,-3, 3, -12, 2, 0, -1, 1, 12
1503958521988,-3, -3, 8, 6, -3, -2, 0, -2
1503958522002,-4, -11, -16, 2, -7, -2, -1, -2
1503958522009,2, 22, 17, -7, 3, 1, -4, -14
1503958522017,-3, -18, -7, -2, -2, -2, 1, 4
1503958522032,0, -2, -13, -2, -3, -2, 2, 3
1503958522040,-5, 2, -1, 7, -3, -1, 1, -1
1503958522047,-4, 9, -2, 5, -2, -1, 1, 1
1503958522061,3, -17, -8, -9, -2, -1, -1, 3
1503958522071,-3, 4, 2, 1, 3, -1, 0, 2
1503958522084,-9, 34, 43, 18, 2, 0, -3, -6
1503958522092,-1, -4, -7, 8, -2, -2, -2, 0
1503958522099,-1, 3, 2, 2, 1, -2, -1, -4
1503958522100,6, 12, 25, -3, 7, 1, -2, 3
1503958522114,-5, 8, 3, 0, -3, -1, 0, -1
1503958522121,-4, -13, -16, -3, -4, -1, 0, -3
1503958522129,3, -9, -10, -9, -3, -3, 0, -4
1503958522144,7, -14, -5, -10, 1, -1, 0, 1
1503958522152,0, -5, 4, -7, 2, -1, -4, 3
1503958522159,-4, -8, -6, -1, -1, -1, 2, -3
1503958522175,-2, 18, 4, 2, 2, 0, 0, -4
1503958522181,0, -26, -23, -5, -5, -1, 1, 1
1503958522189,0, -4, 7, -11, -2, -1, -1, -7
1503958522204,0, 6, -4, 0, 0, -1, -5, -4
1503958522212,7, 9, 17, 5, 3, 2, -2, 4
1503958522226,-1, 4, -1, -3, -2, -1, 1, 1
1503958522234,4, 1, -9, 0, -3, 0, 1, 0
1503958522242,-1, -5, 3, 0, 0, -3, 0, 3
1503958522249,-2, 4, 0, 0, 0, -3, -1, 2
1503958522264,2, 11, 2, -5, -3, 0, -2, -1
1503958522272,-1, -7, -6, 1, 1, 1, 2, -3
1503958522279,-5, 13, -6, 4, -6, -1, 2, -1
1503958522294,-7, -13, 0, 0, 2, 3, 4, -1
1503958522301,6, -1, -9, -18, -11, -3, -4, -2
1503958522310,-5, -10, 4, -7, 0, -1, -3, -1
1503958522324,-3, -3, -2, 8, 1, -2, -1, -4
1503958522333,1, -7, 0, -5, -4, 0, -8, 0
1503958522342,6, 0, -13, 2, -2, 1, 1, 3
1503958522354,-6, -7, 2, -3, 7, -4, -2, -5
1503958522361,-2, -3, 2, -2, 3, -1, 0, -3
1503958522373,1, 5, -2, -2, -1, -1, 2, 7
1503958522384,2, 1, -2, 0, -2, 0, 0, -5
1503958522392,-1, 4, -4, 4, 0, -2, -2, -8
1503958522401,-4, -3, 8, -1, 2, -1, -2, 6
1503958522414,0, 14, -3, 1, -1, 0, -1, 3
1503958522422,-2, 4, -2, -5, 6, 0, -2, -2
1503958522429,-1, 0, -1, -2, -6, -1, 1, 4
1503958522444,-5, -1, -2, 7, -7, 0, 0, 8
1503958522452,6, -14, -8, -6, -6, -2, -2, 9
1503958522459,-3, 5, 2, 10, 0, -1, 3, 3
1503958522474,1, -9, -5, -6, 4, 0, -2, 0
1503958522482,-1, 1, -8, 1, -6, 0, 1, -4
1503958522489,-4, 23, 12, 8, 3, -1, 0, -3
1503958522504,-3, -3, -11, -6, 0, -3, -2, -6
1503958522512,0, -2, 1, -3, -2, -1, 1, -4
1503958522519,-2, -4, 5, -3, 1, -3, -3, -2
1503958522539,1, 4, 2, 1, -5, -2, 0, 5
1503958522541,1, -4, -5, 4, -2, -2, 1, -4
1503958522549,1, 13, 0, 4, -1, -1, -4, -9
1503958522563,6, 6, 6, -5, -5, -1, -3, -2
1503958522572,1, -1, 1, 5, 2, 0, 2, 3
1503958522579,-3, -2, 0, -2, 0, 0, 0, 3
1503958522594,-2, -13, -1, 3, 0, 1, 2, -11
1503958522610,1, -5, -7, -1, 0, -1, 1, 3
1503958522624,-7, 12, 12, -1, 6, -1, -2, 0
1503958522632,3, -2, 4, -9, 1, -1, -2, -1
1503958522648,-5, -2, -4, -2, 2, -1, -8, -7
1503958522654,1, 8, 4, 1, -3, 4, 1, 4
1503958522663,-2, -10, 1, 3, -2, -1, 0, -2
1503958522670,-2, -6, -15, 1, -6, -2, -2, -5
1503958522685,0, 6, -4, -3, -4, 0, 2, -1
1503958522692,-6, 1, -3, -4, -5, -1, -1, -8
1503958522708,2, -5, -3, 2, -1, -3, -3, -16
1503958522714,2, 3, 3, -2, 0, -1, -1, 1
1503958522722,0, -4, 2, -5, -3, -1, 3, 5
1503958522729,-6, 6, 15, 12, 2, -2, -4, -5
1503958522745,-3, -9, -1, -1, -2, -2, -3, -4
1503958522746,-1, -8, -3, -3, -3, -2, -1, 1
1503958522752,6, 1, 5, -10, 0, 0, -1, 4
1503958522768,3, -6, -10, -1, -3, -2, 0, -3
1503958522770,-9, -6, 1, -5, 0, -1, -2, -1
1503958522774,-3, -18, -6, -3, -2, -3, -2, 8
1503958522782,-1, 3, -2, 2, 1, 0, 1, -3
1503958522789,7, 13, -14, -6, -22, 0, 0, 4
1503958522806,2, 21, 6, -4, 2, 0, -5, 0
1503958522812,-5, -16, -2, -4, 5, 0, -2, -18
1503958522827,8, -8, -8, -2, -5, 0, 4, 2
1503958522835,-4, -10, 11, -10, 4, 0, -3, 3
1503958522842,-3, -14, 5, -3, 3, -1, 0, 0
1503958522849,-4, -8, 1, 6, 4, -2, 1, 5
1503958522865,3, 6, 3, -11, -1, 0, -5, -2
1503958522866,3, 11, 7, -1, 0, 3, 0, -7
1503958522872,-1, -12, -7, 7, -5, 0, 0, -5
1503958522887,2, -4, 4, -2, 1, 1, 0, 6
1503958522894,-6, -21, -1, -3, 3, -4, 2, -2
1503958522906,1, -4, -4, -2, 0, -1, 0, 9
1503958522909,0, 9, 2, -4, -1, -1, -3, -11
1503958522925,-4, -3, 0, -2, -9, -2, 0, 0
1503958522932,5, 4, -10, -8, -4, -3, -2, 3
1503958522948,4, -11, 5, -8, -3, -3, -4, 2
1503958522962,8, 2, 10, -17, 4, 7, 9, 11
1503958522963,-11, -2, -10, 2, -2, -6, -8, -17
1503958522972,6, 6, 15, -11, 1, 3, 3, -3
1503958522985,0, 14, 4, 2, 7, 0, 0, -1
1503958522992,-1, -14, -6, 2, 0, -2, 3, 1
1503958523008,0, -5, -5, 0, 1, -5, -6, -6
1503958523014,-1, 11, -2, 10, -2, 1, 0, 5
1503958523022,-1, -3, -4, 0, -3, 3, -1, -6
1503958523039,-9, 9, -5, 14, 1, -6, -20, -4
1503958523045,-5, 17, 8, 2, 0, 2, 3, 9
1503958523052,-12, -9, -8, -2, -5, -4, -13, -1
1503958523075,-6, -4, -2, -5, 3, -2, 9, 5
1503958523082,9, 7, 9, -9, 0, 0, 14, 16
1503958523097,2, 4, -9, 4, -4, -2, -2, -20
1503958523107,-12, 3, 6, 1, 0, -3, -7, 3
1503958523108,-5, -4, -1, -1, 4, 3, 4, -5
1503958523112,3, 7, 16, 0, -3, 0, -3, -16
1503958523127,3, 2, -8, 4, 0, 1, 1, -6
1503958523134,15, -20, -6, -5, -1, 0, -7, 6
1503958523142,-11, -1, 12, 5, -6, -7, -8, -5
1503958523157,10, 3, 6, -7, 8, 1, -3, -3
1503958523165,11, -22, -18, 9, -16, -2, -3, 16
1503958523173,-5, 4, 0, 5, -3, 0, 6, 13
1503958523187,-8, 9, 0, 1, -3, -1, 3, -13
1503958523195,-6, 13, -8, 1, -2, -2, 2, 0
1503958523202,1, 5, -8, 6, 4, 1, 0, 6
1503958523217,-3, 36, 7, 10, 3, 0, 3, -10
1503958523225,8, -1, -10, -2, 4, -1, 6, 12
1503958523232,-10, -1, 9, -6, 1, 0, -1, -11
1503958523248,-8, 0, 7, -4, 0, -3, -12, -33
1503958523254,-11, -6, -5, 1, 1, -4, -16, 17
1503958523270,-4, -1, -1, -10, -6, 0, 2, 0
1503958523277,2, -11, 9, -7, -3, 2, -3, -3
1503958523285,4, 5, 0, 1, 8, 0, -8, 1
1503958523292,1, -12, -8, 2, -5, 0, 5, 10
1503958523307,-1, -2, 9, 12, 2, 2, 0, 9
1503958523308,-2, -8, 1, -9, -3, -1, 2, -3
1503958523314,-9, -9, -6, -7, 1, -1, 3, 0
1503958523322,6, 7, 12, -9, -3, -4, -7, 1
1503958523337,3, -3, -4, 5, -3, -3, 2, -4
1503958523345,-8, 10, -6, 16, 2, 4, 5, -13
1503958523352,-9, -6, 5, -9, -6, 1, 0, -12
1503958523367,8, 3, 5, -5, -9, 0, -2, -7
1503958523375,6, 12, 3, -3, -3, 1, 5, 4
1503958523384,2, 9, 4, -3, 1, -1, -3, 6
1503958523397,-1, 4, 0, 1, -3, -4, -8, -2
1503958523405,-4, -8, -9, 7, -1, -1, 1, 14
1503958523412,1, 0, -3, 2, 3, -3, -1, 10
1503958523427,3, -8, -3, 0, -3, 0, 3, -9
1503958523434,2, 3, 1, 2, 0, 0, 2, -5
1503958523444,-6, -10, -6, -3, 1, 0, 2, 7
1503958523457,-3, -2, -4, 5, 2, 0, 3, -4
1503958523465,9, -2, -9, 1, 5, 2, 5, -6
1503958523472,-5, 0, 9, -2, 0, 2, -4, -1
1503958523487,2, 6, -5, 2, -3, 0, -1, 13
1503958523494,1, -5, 0, -6, -6, -4, -6, 0
1503958523510,-10, -20, 5, -3, 1, -1, -1, 1
1503958523517,1, 3, 0, 2, 5, 2, -3, -15
1503958523525,-10, 3, 3, -3, -7, -3, -3, -3
1503958523532,1, 2, -1, -9, -4, -5, -3, -3
1503958523548,-6, 3, 4, -3, 1, 0, -2, 4
1503958523554,7, 6, 3, 2, 2, 0, 2, 2
1503958523562,2, 13, 8, 1, 4, -1, -1, 4
1503958523578,4, -6, -5, -2, -1, -3, 7, 0
1503958523585,1, -1, -2, 1, -5, 0, -9, -12
1503958523592,-1, 4, -4, -2, -11, -1, 3, 4
1503958523609,-2, -10, 2, -5, -5, 1, 2, 1
1503958523615,-10, 1, -10, 5, 1, 0, 1, -3
1503958523622,-14, -6, 6, 3, 9, 0, -2, -3
1503958523637,-12, -13, -12, 6, -3, 0, 3, -2
1503958523645,15, -2, -6, -10, -2, -1, -1, 2
1503958523652,12, 0, -14, 4, -1, -1, -2, -1
1503958523667,-10, 20, 5, 5, 1, -1, -4, -8
1503958523679,4, -1, 15, -12, -5, 0, -5, 3
1503958523682,6, -5, -6, -3, 6, -1, 1, 2
1503958523697,2, 4, 15, 0, 8, -1, 4, -10
1503958523705,14, 23, 27, -14, -1, -2, -3, -11
1503958523712,11, -40, 9, -5, 4, 1, 3, 2
1503958523727,-14, -11, -6, -1, -1, 3, -5, -4
1503958523734,-10, 24, 9, 1, 1, -4, -3, 4
1503958523744,7, -9, -12, 2, -2, 4, 8, 9
1503958523757,9, 1, -24, -38, -4, 0, -11, -7
1503958523765,-3, -5, -5, 8, -9, -6, 2, -1
1503958523772,0, 0, -13, 20, -1, -5, 8, 9
1503958523787,-13, 4, -8, 2, -6, -4, -3, -12
1503958523794,-5, 13, -2, 5, -4, 5, 1, 6
1503958523802,1, 0, 5, 6, 2, -4, -1, 2
1503958523817,-5, -6, 6, 8, 2, 0, -1, -2
1503958523825,10, 7, 9, -9, 2, 2, 4, 7
1503958523832,0, -2, -17, 4, -1, 0, -2, -11
1503958523848,-5, -1, -5, -1, -2, -6, -4, 4
1503958523854,-13, -10, 2, 6, 7, 1, 4, -4
1503958523862,-14, -12, -2, -6, -7, -5, -10, -12
1503958523878,-7, 1, 13, -2, -6, -3, 1, 7
1503958523885,-9, -7, -11, 2, 0, -1, -2, 0
1503958523897,4, -6, 1, -3, -3, -2, -3, 5
1503958523907,0, -3, -5, -2, 2, 4, 4, 5
1503958523914,-5, -11, -11, -2, 1, -1, 0, -4
1503958523922,9, 5, 9, -4, 5, -3, -2, -1
1503958523937,16, 0, 7, -9, -6, -2, -2, 6
1503958523945,0, -8, -11, -1, -3, -1, -1, 19
1503958523959,-10, 7, -2, 0, 3, 1, -3, 2
1503958523967,6, 2, 15, -2, 8, 1, 5, 7
1503958523974,-1, 5, -5, -4, -12, 0, -5, -4
1503958523989,-7, 0, -1, 6, 0, -13, -27, -14
1503958523997,0, 4, 14, 4, 2, -4, -3, 5
1503958524005,15, 12, 8, -7, -7, 1, 0, -4
1503958524020,-2, 15, 18, -5, 1, -4, 0, -4
1503958524027,5, 17, 7, -10, 5, 4, 4, 1
1503958524034,21, -8, -1, -13, -5, 1, 6, 4
1503958524051,3, -3, 4, -11, -2, 2, 1, -10
1503958524057,-14, -5, -1, -2, 5, 3, 8, -2
1503958524065,-9, -5, -10, -2, -11, 1, 3, -4
1503958524079,-5, 0, -6, 4, 2, -1, -6, -7
1503958524089,7, 1, 0, -4, 0, -2, 5, 1
1503958524094,-3, -4, -3, 0, -2, 0, -2, -1
1503958524109,15, -13, -2, -13, -7, -5, -8, -3
1503958524117,8, 2, 3, 2, -8, -3, 1, 6
1503958524125,-13, -5, 0, -6, -12, -1, -5, 5
1503958524140,-12, 1, 16, 1, 1, 0, -6, -8
1503958524148,-5, -8, -7, 13, 0, -1, 6, 2
1503958524156,-6, -1, 12, 5, 3, 0, -3, -2
1503958524172,11, 4, 0, 2, 6, 1, 1, 6
1503958524181,-3, -3, -2, 1, 8, -1, -2, 3
1503958524186,-4, -6, 3, -3, -2, 3, 3, -10
1503958524200,-3, -7, -11, 2, -5, 0, -13, -4
1503958524208,-14, 0, 8, -3, 5, 3, 0, 6
1503958524215,6, 4, -7, -11, -5, -4, -9, -4
1503958524230,-1, -5, -2, -3, 1, -4, 2, -4
1503958524239,-7, -6, -7, 5, 0, 2, 7, 3
1503958524249,22, 6, 8, 4, 5, 1, 2, 10
1503958524259,-4, -5, -1, -6, 1, -1, -1, -16
1503958524267,-9, 0, -8, 7, -2, -1, -1, 3
1503958524275,-3, 12, 10, -3, -3, -3, 2, 1
1503958524289,-3, 10, 4, 0, -4, 1, 0, -22
1503958524297,-2, -18, 2, -6, 1, 1, 2, -1
1503958524305,-8, -14, -10, 1, -6, -1, -2, -4
1503958524319,-6, -5, -2, 7, 3, 1, 3, 16
1503958524327,-1, 5, 14, 5, 6, -2, -1, -20
1503958524334,1, 25, 10, 9, 4, -2, -1, -3
1503958524349,-12, -17, -7, -9, 3, -3, -12, -12
1503958524357,23, -9, -24, 13, -3, -3, -1, -8
1503958524365,0, 10, 4, -14, -21, 1, 0, 2
1503958524381,-5, -10, -3, -6, 2, 1, 9, -1
1503958524387,4, 1, 8, -8, 9, 2, 1, -1
1503958524394,-21, -14, -8, -4, -7, 1, 1, -6
1503958524409,-5, -4, 0, -6, -3, -4, -5, -3
1503958524418,17, -11, -5, -5, 0, -2, 2, -5
1503958524425,6, -5, -6, -1, 3, 1, 4, 14
1503958524439,17, 7, 6, -16, -6, -6, -2, -2
1503958524448,-6, -10, -13, 6, 0, -2, 0, 7
1503958524454,-7, 4, 8, -11, -4, -1, -2, 19
1503958524469,3, 11, 1, -2, -4, -4, -4, 10
1503958524477,-29, -5, 3, 10, 5, 4, -3, -1
1503958524485,-5, -8, 3, -6, -4, 0, -10, -16
1503958524499,2, 14, 1, 8, 3, 1, -6, 0
1503958524507,0, 8, 12, -1, 5, -1, 1, 6
1503958524515,1, 14, 11, 11, 4, -1, 4, -6
1503958524529,2, 4, -1, -1, -2, 0, -3, 0
1503958524537,1, -8, -8, -5, -2, -1, 2, 14
1503958524545,8, -1, -3, -5, -10, -6, -2, -1
1503958524559,-16, 1, -7, 0, -1, -3, -2, -8
1503958524567,-15, 1, -6, 6, 5, 0, 2, 3
1503958524574,6, 0, 7, -10, -1, -3, -6, -11
1503958524593,3, 2, -5, 6, -1, 1, 4, -9
1503958524597,3, 7, 17, -13, -2, 1, -7, -3
1503958524605,-6, -10, -3, 14, 9, 2, 1, 3
1503958524619,7, -17, -19, 6, -4, -2, -5, 1
1503958524627,1, 0, -3, 8, 3, -1, 18, 4
1503958524634,2, -1, 4, -3, -10, -2, 1, 2
1503958524650,-19, -3, 5, 1, 2, -2, -4, -6
1503958524657,4, 11, 5, -2, 7, 0, 2, 3
1503958524665,-3, -7, -7, -6, -6, 0, 1, -2
1503958524679,0, 2, -4, -12, -2, 0, -3, 5
1503958524690,2, 2, 3, -2, -9, -1, -1, 2
1503958524695,-4, 0, -11, 8, -1, 2, 0, -1
1503958524709,2, -4, -1, -3, -1, -1, -4, -2
1503958524717,-2, 1, 5, -6, -4, 0, 1, -6
1503958524725,2, 6, 5, 2, 6, 1, -3, -4
1503958524739,-1, -9, -6, 1, 0, -1, 3, -5
1503958524747,-7, 1, -6, -6, 3, -1, -2, -3
1503958524754,-2, 17, 0, 11, -2, -3, -1, -1
1503958524769,-1, 0, -10, -4, -7, -1, -4, -4
1503958524770,-2, 2, 6, -3, 6, 0, -1, 0
1503958524776,10, 6, -8, -7, 3, 0, 3, 0
1503958524792,2, 10, 1, 10, 1, 1, 5, 5
1503958524799,5, -4, -5, 0, 2, -1, 1, -6
1503958524807,17, -12, -9, -1, -7, -3, 0, 3
1503958524814,-11, -19, 7, 10, 10, 3, 3, 6
1503958524829,7, 27, 1, 5, 1, 0, -1, 3
1503958524836,-1, -4, 1, -1, 2, 1, 2, -3
1503958524837,-2, -3, -2, -4, -7, -3, 0, 1
1503958524845,1, -12, -2, -1, -1, 0, 4, 0
1503958524859,-2, 3, -3, 1, -1, 2, 6, 0
1503958524867,3, -6, 5, -10, -4, -4, -8, -7
1503958524881,0, -3, 2, -7, -3, -2, -5, 1
1503958524890,-31, -10, -4, -1, -5, 1, -1, -2
1503958524897,11, -2, 0, -3, -3, -1, -1, 14
1503958524912,4, -4, 6, -26, -13, -4, -4, 2
1503958524919,-5, 4, 7, -3, -8, -1, 2, -7
1503958524927,2, -8, -13, 1, -6, 0, 1, 1
1503958524941,-3, -13, -6, -2, 1, -2, -5, -7
1503958524949,4, -7, 16, -3, 7, -1, -4, -4
1503958524957,8, 2, -8, -2, -3, -4, -1, -7
1503958524972,-1, 3, -12, 8, -2, 0, -1, 1
1503958524979,-3, 2, 11, -10, -1, -2, -5, -1
1503958524987,-3, 2, 17, -8, 2, -2, -5, -9
1503958525001,-25, -5, 0, 11, 12, -1, -3, -3
1503958525009,0, 5, -11, -7, 0, 3, 2, 3
1503958525019,-5, 2, -9, 4, -5, 1, 5, 4
1503958525032,3, -6, -1, 8, 1, -4, -1, -2
1503958525039,4, -8, -7, -2, -3, -2, -2, -1
1503958525047,11, 3, 1, -3, -5, -3, -1, 1
1503958525061,-1, 12, 5, 1, 1, -1, -2, -4
1503958525070,-9, 1, 6, -7, 5, 1, -3, 1
1503958525077,3, -3, -7, -7, -1, -2, -4, 0
1503958525092,-14, -6, 1, 5, 5, 2, -1, 0
1503958525099,25, 5, 0, -5, -5, 0, 0, -1
1503958525107,3, 7, -2, -3, -4, 0, 1, 6
1503958525121,12, 21, 12, 3, -3, -2, 1, -2
1503958525129,-3, -1, -7, 2, -1, 1, 0, -5
1503958525137,-10, -17, -4, -7, -9, -2, -6, 2
1503958525153,4, 6, -6, 12, -2, -4, 1, -10
1503958525159,0, -4, 6, -3, 1, 0, 1, -3
1503958525167,3, -27, -4, -4, -2, -3, -2, 7
1503958525181,-1, 17, 6, -4, -2, -1, 0, -7
1503958525189,4, -4, 10, -1, 1, 1, 0, 0
1503958525197,-2, -10, 0, 0, -2, -2, -1, -3
1503958525212,-5, 7, -1, 9, -1, -1, -1, -1
1503958525221,-11, -3, -2, -2, -1, 3, 1, 3
1503958525227,-30, -6, -1, -3, -3, -2, 1, -9
1503958525241,-11, 12, 20, -2, 6, 1, -1, 2
1503958525249,8, 14, -21, 7, -9, 0, 3, 5
1503958525257,10, 2, 2, -10, 3, 0, -2, 5
1503958525272,9, 2, 0, -4, -1, -2, -6, -17
1503958525279,5, 10, -3, -4, 2, 0, -5, 5
1503958525289,15, -11, 3, -11, -2, -2, -1, 0
1503958525301,19, -18, -7, 3, -4, -2, 3, -8
1503958525309,12, 10, 7, -1, 1, -2, 0, 9
1503958525317,-25, 7, 0, 5, 1, 1, 0, -10
1503958525332,-1, 4, -8, 3, 1, -1, 0, -2
1503958525339,3, -18, -2, 2, 0, -2, -1, 3
1503958525347,-15, 6, 2, -2, -4, -4, -3, -2
1503958525361,-4, -6, -11, 10, -3, -3, 2, 1
1503958525369,16, 0, 8, -17, -6, -2, 0, -14
1503958525377,-3, -4, -1, 2, 8, 0, 1, -3
1503958525392,-26, -14, -3, 10, 2, 2, 1, -3
1503958525399,14, 21, 5, -5, 0, 1, -1, 4
1503958525407,-12, -14, -4, 2, -3, 0, -2, -1
1503958525424,-13, -13, -2, -1, 1, -3, -3, 10
1503958525430,11, 10, 3, 0, 0, 3, -1, 4
1503958525437,-11, 0, -6, -5, -6, -3, -5, -9
1503958525452,-1, -13, 2, 5, 5, 1, 5, 8
1503958525459,2, -12, 4, -9, -1, -1, -3, 3
1503958525467,6, 11, 9, -6, 0, 0, -3, -3
1503958525482,-32, -21, -9, 5, -3, -2, -1, -9
1503958525490,-25, -6, -4, -2, 4, 0, 0, -1
1503958525497,3, 23, 0, -1, -2, 2, 1, -3
1503958525512,11, 8, 5, -7, 2, -1, -6, -5
1503958525519,-2, 3, -3, 1, 11, -1, 1, 10
1503958525527,0, 13, -14, 7, -9, -3, 2, -5
1503958525542,17, -15, 1, -9, -9, -1, 3, 4
1503958525550,6, 4, -1, 5, 1, -1, -1, 4
1503958525557,-9, -4, 7, -3, 2, 0, -2, -23
1503958525572,17, 2, 9, -10, 0, 2, 2, -10
1503958525580,7, -3, 1, 9, -7, 0, 4, 2
1503958525591,-27, 6, -14, 9, -2, 0, 1, 5
1503958525602,18, -9, -10, 2, -1, 1, 2, -10
1503958525610,0, -1, 15, -7, 4, -1, -6, 2
1503958525617,-18, 5, -2, 3, -4, -3, -1, 1
1503958525632,-15, -14, -12, 4, -3, -4, 1, 4
1503958525639,13, -20, 3, -1, -5, 0, 2, -8
1503958525647,-22, -23, 7, 1, -4, -3, -4, -3
1503958525662,1, 48, -7, 4, 2, 1, 0, 19
1503958525677,32, 0, 15, -17, 3, -4, -2, -15
1503958525692,4, 6, 15, -3, 24, 5, -2, 2
1503958525700,-11, -6, 2, 3, 2, 4, 4, 20
1503958525707,8, -3, -19, 4, -8, -5, 1, 5
1503958525724,-12, 18, 8, -8, 1, -1, -4, 2
1503958525730,7, -10, 4, -7, -5, 2, 4, 1
1503958525737,-20, -21, -5, -11, -6, -7, -13, -11
1503958525752,7, -4, -14, -2, -4, -3, -1, -11
1503958525759,-4, -11, 23, -11, 9, 3, -6, 1
1503958525768,-1, -19, 10, -9, -5, -3, -8, -18
1503958525782,-12, -6, -13, 11, -5, 2, 4, 2
1503958525792,25, 4, 13, -3, -2, 0, -10, -10
1503958525797,0, 4, 8, -11, -2, 1, -2, -1
1503958525812,7, -9, 0, 3, 3, 1, 5, 6
1503958525819,1, -16, -11, -4, -14, -3, -5, -10
1503958525835,-17, -7, -9, -2, 0, -2, 0, 2
1503958525842,26, 28, -2, -6, -6, -5, 2, 16
1503958525850,25, -7, 7, -9, 2, 1, 4, -4
1503958525864,-4, -2, -23, 15, -5, 0, 2, 0
1503958525872,3, 17, -2, -10, -2, -1, 2, 3
1503958525879,-3, -1, -8, 6, 0, -2, 2, 0
1503958525895,13, 38, -1, -3, 1, -3, -1, 4
1503958525902,9, -2, 7, 0, -1, 1, -1, 3
1503958525910,-3, 9, 26, -13, -1, -1, -5, -1
1503958525926,-1, 12, 12, 7, 3, 1, 0, -4
1503958525932,-10, -17, 0, 9, 3, -2, -3, -3
1503958525939,-13, -16, 6, -9, -1, -2, -4, -17
1503958525954,-27, -1, 1, -7, 1, 0, -3, 4
1503958525962,5, 4, -3, -3, 7, 0, 2, -3
1503958525970,11, 12, 25, -29, 7, 2, -3, 1
1503958525984,-6, -3, -8, 5, 2, 4, 7, 10
1503958525992,-11, -18, -10, 11, -15, 0, 3, -12
1503958525999,1, -14, -6, -11, -10, -3, -1, 13
1503958526014,-8, 14, 9, -16, 9, 0, -6, 7
1503958526021,4, 21, -5, 5, -7, -1, 0, -13
1503958526029,-25, -12, -7, 8, -2, -3, 1, -16
1503958526044,-14, 6, 3, -4, 2, -2, -1, 2
1503958526052,7, 3, -15, 7, -4, 0, 1, 3
1503958526066,-10, -20, 4, 0, 5, -1, -3, -8
1503958526074,-7, 7, -9, -15, -12, -1, -1, -1
1503958526082,-2, -18, -7, 7, 1, -3, -3, 3
1503958526090,-2, 0, 9, 11, 5, -2, 0, -2
1503958526104,12, 4, -1, -3, -4, -1, 2, 6
1503958526112,8, -9, -2, 5, -13, -6, -2, 1
1503958526119,1, 16, -7, 10, 6, -1, 1, 2
1503958526135,12, 2, -3, -1, 1, -2, -1, 7
1503958526142,-1, 6, 10, -20, -16, 1, -4, -10
1503958526150,-19, -25, -1, 1, 0, -1, -1, -3
1503958526164,-5, 1, -5, 3, -5, -3, -1, -7
1503958526172,-10, 5, 5, 2, 8, 5, 0, -6
1503958526179,-3, 16, -3, 1, 3, 0, 1, -1
1503958526194,1, 0, 8, -8, 0, 3, -4, -5
1503958526202,7, 25, 11, -4, 4, 0, -6, -19
1503958526210,2, 6, -4, 3, 0, 0, 0, 4
1503958526224,-7, -13, -3, 5, -1, 2, 9, 10
1503958526232,29, -4, -1, -1, -5, -3, 0, 0
1503958526239,-7, -15, 1, -5, -4, 0, -2, 8
1503958526254,-7, -6, 3, -2, 5, 1, 1, 17
1503958526262,-2, 18, -5, 2, 1, 0, 0, -9
1503958526270,-17, -30, -14, 4, -10, -4, -6, -24
1503958526283,3, -3, 4, 2, 0, 0, -1, 5
1503958526292,5, -8, 1, -10, 3, -1, -1, 7
1503958526300,-1, -3, -7, 1, -6, -2, 0, 2
1503958526314,0, -4, 3, 2, 5, 1, -1, 1
1503958526322,2, -15, 1, -4, 1, 0, -6, -5
1503958526330,-8, 12, -10, 11, 0, -1, -1, -1
1503958526344,-3, -10, -1, 2, 1, 0, -1, -10
1503958526352,4, 6, 4, -4, -4, 1, -2, 0
1503958526359,5, 9, 11, -18, -3, 1, -3, 2
1503958526374,2, 6, -2, -17, 2, -3, -6, -2
1503958526382,1, -10, 8, -7, 11, 0, -2, -1
1503958526390,-5, 35, -9, 4, -4, 1, 7, 4
1503958526404,0, -17, -4, -5, -1, 0, -1, 4
1503958526412,-24, 33, 1, 17, 2, -1, -2, -2
1503958526419,1, -7, 4, -9, -2, 0, 1, 2
1503958526434,-5, -3, -1, 3, -5, -2, -2, 2
1503958526442,-9, 3, 6, 3, 10, 0, -5, -2
1503958526450,11, -14, 3, -4, -7, 0, 0, 0
1503958526464,1, -11, 2, -1, 0, -2, -2, -4
1503958526472,3, 8, 13, -3, 3, -2, 0, -4
1503958526479,-5, 8, -5, 2, -1, -2, 2, 0
1503958526496,8, 11, -11, 3, -1, -2, 2, -2
1503958526508,8, 1, 2, 8, 2, -2, 0, -3
1503958526510,1, -13, -7, 2, -4, 0, 2, 5
1503958526523,-27, -9, -6, -1, 0, -1, -3, -5
1503958526532,-5, 2, -4, -1, -5, -1, -1, -5
1503958526539,9, 2, -4, -2, -4, 0, -2, 0
1503958526554,2, -7, 4, -7, 2, -1, -4, 0
1503958526564,5, 5, -7, -4, -5, -1, 2, -2
1503958526571,1, 7, -11, -4, -1, -2, 3, 1
1503958526584,2, -22, 6, -4, -7, -1, -1, 5
1503958526592,-2, -13, -1, 0, 2, -1, 0, -12
1503958526600,-5, 13, 1, 4, -2, -2, 2, -4
1503958526614,-4, -8, -2, 4, 1, 1, 1, -2
1503958526622,17, -15, -6, -3, 1, -1, -2, -1
1503958526630,4, -12, 6, 1, 2, 0, -1, 2
1503958526644,-4, 5, 2, 9, 4, -1, 1, -3
1503958526652,1, -3, -1, -4, -2, 0, -1, 1
1503958526659,-6, 11, -2, 2, 2, -2, -1, 1
1503958526676,-3, -13, 2, -6, 0, -1, -1, 1
1503958526683,0, -9, 2, -4, -1, -1, -3, 1
1503958526690,0, 21, 1, -6, 0, 0, -2, 3
1503958526704,0, -23, -6, -4, -4, -2, 0, -2
1503958526712,1, 0, -8, 2, -3, 0, -1, -3
1503958526719,-4, 6, 1, -4, 0, 0, -1, -1
1503958526735,-4, -3, 1, 0, 5, 1, 0, -2
1503958526742,-3, 12, 5, 3, 3, 2, -2, 0
1503958526757,-2, -17, -8, 3, -6, -2, 1, 3
1503958526765,-1, 6, 1, 1, -4, -2, 1, 3
1503958526773,2, 4, 5, -4, 7, 1, -1, -1
1503958526786,2, 13, 5, -10, 1, -1, -2, -2
1503958526794,-3, 6, -4, -1, -2, -1, 0, 1
1503958526804,-1, 1, 6, -1, 1, 1, -1, -1
1503958526817,0, 38, 4, -3, -2, 0, -1, -3
1503958526823,-2, -14, -13, 3, -4, -2, 0, 3
1503958526832,4, -33, 3, 0, -5, -3, -2, 4
1503958526846,-6, -2, -7, 2, -3, -2, 0, 0
1503958526854,-5, -4, 3, 4, -1, -1, -1, -1
1503958526862,1, 4, 5, 6, 1, -1, -1, 1
1503958526877,3, -5, 1, -1, -1, -1, -1, -2
1503958526883,-1, 2, 0, -1, -2, 0, 2, -6
1503958526892,2, 4, -1, 0, -1, 0, -1, 3
1503958526909,-4, 0, 1, -1, 2, 0, -3, 0
1503958526914,-7, -13, -15, -2, -2, -1, -1, 0
1503958526922,1, -9, -1, -2, -1, -1, 0, -1
1503958526937,-1, 9, 0, -2, -4, -2, -1, -6
1503958526943,2, -1, 0, -6, -8, -2, 0, -1
1503958526952,-5, -11, -2, 1, -3, 0, 1, -3
1503958526971,1, 3, 5, -1, -3, -1, -2, -1
1503958526974,-2, -11, -4, -8, -3, -1, -3, -3
1503958526982,0, -2, -1, 2, 9, 1, -1, -4
1503958526996,-4, -8, 0, 4, 2, -2, 0, 0
1503958527004,-2, 0, -3, -2, -1, -2, -1, 2
1503958527012,0, 13, -8, 4, 2, 0, 0, -2
1503958527026,-1, 22, 2, -3, -2, 0, 0, -1
1503958527037,4, 8, 14, 3, 1, -2, -1, 2
1503958527042,3, -6, 0, -3, -10, -1, -1, 2
1503958527057,-2, 1, 4, -1, -1, 0, -1, 0
1503958527063,-4, -11, -2, 2, -2, -1, 1, -1
1503958527072,-3, -3, -2, 2, 0, 0, 1, 1
1503958527086,1, -7, 1, -8, -3, -1, 0, -1
1503958527094,2, 6, 0, -6, 5, 0, -3, -6
1503958527103,1, 4, 2, -3, -1, 1, -2, -2
1503958527116,-6, -1, 3, -1, 0, 0, 1, -2
1503958527123,-1, -14, 1, -3, 5, -3, -2, -2
1503958527134,-1, 0, -3, -1, -3, -2, -1, 2
1503958527146,0, -1, -2, 5, -1, 0, 0, 0
1503958527154,1, -5, -1, 1, -4, -1, 0, -2
1503958527161,-1, -10, -2, -8, -2, -2, -2, -1
1503958527177,1, 3, 10, -2, 4, 2, 0, 2
1503958527183,-5, -4, 3, 2, 4, -1, -1, 1
1503958527191,5, 3, 6, -13, -2, 0, -3, -2
1503958527192,1, 0, -3, -1, -7, -2, 1, 0
1503958527206,-1, 7, -1, 4, 1, -2, -1, -4
1503958527214,5, -2, 15, -6, 4, 1, -3, -1
1503958527222,0, 8, 2, -2, -4, 0, 0, 1
1503958527237,-1, -1, -5, -6, -5, -2, -1, 3
1503958527245,-2, 6, 2, 2, 6, 1, 1, -1
1503958527251,2, -9, 1, 1, -6, 0, -2, -3
1503958527252,-3, 25, -6, -1, -1, -1, 1, 0
1503958527269,-2, -7, -2, -4, -3, -2, -3, -3
1503958527274,0, -15, -3, 1, 4, 0, -3, -2
1503958527282,-2, -3, -1, -3, -1, -2, -2, -2
1503958527296,-3, -10, 8, -5, -1, 0, -2, -4
1503958527304,7, 2, -1, 1, 1, -1, 3, 1
1503958527311,-4, -4, 1, 0, 0, -1, 0, 1
1503958527312,1, -1, -13, 3, -4, -2, 4, -6
1503958527326,-5, -4, -6, -6, -1, -1, -2, -4
1503958527336,-2, 13, 6, 8, 1, 1, 1, 0
1503958527348,0, -15, -2, -2, -4, 0, -1, -1
1503958527357,1, -9, 1, -3, -2, 0, -2, 0
1503958527363,-3, 8, 2, 1, 2, -1, -1, 0
1503958527372,2, -6, -2, -3, -3, -1, -2, 6
1503958527386,-3, 19, 0, 4, 2, 0, 0, -2
1503958527394,-8, 3, 6, -4, -2, -2, -3, -1
1503958527404,6, -12, 7, -4, -3, -1, -2, -1
1503958527417,2, 1, 2, 2, 0, -2, -1, -3
1503958527423,7, 6, -6, -10, -19, -1, -1, 2
1503958527432,0, 22, -4, 2, -2, -1, 0, -2
1503958527447,-4, -8, -5, 0, 2, -3, -1, 2
1503958527455,-3, -7, -6, -3, 1, 0, 1, -1
1503958527462,-5, 13, 2, 3, 4, 1, -1, 1
1503958527477,-2, -2, -5, 1, 2, -2, 1, -3
1503958527483,1, 7, 4, -8, 2, 1, -2, -7
1503958527492,1, -11, 3, -6, -2, 0, -1, -4
1503958527508,-2, -3, 4, 4, 1, -1, 0, -1
1503958527514,2, -10, 5, -5, -2, -2, -3, 1
1503958527522,-5, -11, -4, 1, -1, -1, -1, -3
1503958527539,2, -9, -3, -2, -4, 1, 0, 1
1503958527543,-1, 12, 3, -1, 1, 0, -1, 2
1503958527552,1, 11, 0, -2, -4, -2, -2, -1
1503958527567,-2, 1, -10, 0, -1, -2, 0, 1
1503958527577,-1, -11, 4, -3, -1, -2, 0, -3
1503958527590,0, 11, 8, 3, 1, -1, 0, 0
1503958527596,-1, 15, 0, -3, 0, 0, -1, 2
1503958527597,-3, -5, -3, 1, 0, 0, -1, 1
1503958527609,0, -17, 2, -3, 0, 0, -1, -1
1503958527612,-2, -2, 5, 5, 0, 0, 0, -3
1503958527627,-1, 12, -7, 0, 2, -1, 3, -3
1503958527634,-7, -1, -7, 4, -2, -1, -1, -3
1503958527650,4, -14, -4, -2, -2, 0, 0, 2
1503958527657,2, -7, -3, -4, 0, -1, -1, 1
1503958527665,1, -3, 0, -3, 1, 0, 0, 2
1503958527679,0, 0, 1, -1, 0, -1, -1, 1
1503958527688,1, -5, -2, -2, -1, -3, -2, -2
1503958527694,-3, 27, 5, -4, -1, -2, 2, -1
1503958527710,-5, 0, 7, 2, 1, -1, 0, 0
1503958527716,-1, -11, 4, -4, 0, -1, -4, 1
1503958527724,0, -4, -7, -3, -1, 1, -1, 1
1503958527742,4, 6, -9, 2, 0, 0, 0, -2
1503958527748,-2, -2, 1, -3, 1, -3, -1, -2
1503958527754,0, -24, -2, -1, -2, -2, -2, -2
1503958527771,-4, 5, 0, 3, 6, 0, 0, -2
1503958527776,1, 2, 2, -1, -1, 0, -2, 4
1503958527785,-2, -6, -1, -2, -3, 1, 0, 0
1503958527799,-3, 9, -1, -3, 5, -2, -1, -4
1503958527808,2, 17, 3, -5, -2, 0, -1, -1
1503958527814,-1, -11, -7, -2, -2, -1, 0, -5
1503958527829,-5, 15, 6, -1, 6, 1, 0, 1
1503958527830,1, -9, -7, 1, -3, 0, -1, -3
1503958527840,0, 0, -8, 0, 1, 0, 3, -1
1503958527845,-5, -8, -3, -1, -5, 0, 0, -1
1503958527866,1, 3, -6, 0, -3, -2, -1, 0
1503958527868,0, -10, -3, -2, 0, 0, 0, 2
1503958527874,-1, 14, 6, 0, -3, -2, -1, -2
1503958527890,1, -2, 1, -2, -6, 0, -2, -1
1503958527896,-4, 2, -4, 0, 0, 0, -1, 2
1503958527906,1, -2, 4, -3, -2, -2, 0, -2
1503958527919,1, -7, 2, -1, 2, 0, 1, -3
1503958527927,2, -10, -1, -2, 0, -2, -2, 0
1503958527934,1, 10, 10, -2, 1, -1, -3, 3
1503958527950,1, 1, 1, 0, -3, 1, -1, -2
1503958527956,0, -3, -6, -1, -1, 0, -1, -2
1503958527964,-3, 5, 3, 2, 1, 0, 1, 0
1503958527981,-2, -22, -8, -2, -4, -2, 0, -1
1503958527987,-7, 3, -2, 1, 5, -1, 1, -1
1503958527994,-1, -7, 1, 0, 0, 0, 0, -4
1503958528010,-1, 23, 5, 4, 1, -1, -2, 0
1503958528016,-2, 1, 11, 0, 1, -1, -2, -2
1503958528025,1, -4, -2, -3, -1, -1, 0, -1
1503958528040,0, 15, -6, 2, -2, -3, 0, -1
1503958528047,1, 12, 0, -4, -2, 0, -2, -7
1503958528054,0, 1, -1, -7, -4, 0, 1, 1
1503958528070,-3, 3, -11, -4, -2, -3, -3, -1
1503958528077,1, 5, -11, -4, -1, -1, -1, -3
1503958528085,-1, -3, -1, 3, -3, 0, 1, 0
1503958528099,0, -2, 2, -4, -3, -1, -1, 2
1503958528108,2, 8, 9, -1, 0, -1, 0, 0
1503958528114,-1, 8, 11, 3, 0, 0, 0, 1
1503958528130,2, -7, 8, -7, 1, -1, -4, 4
1503958528137,0, -5, 2, -3, -8, -1, -1, 0
1503958528145,0, -9, -3, 0, -2, -1, 0, 0
1503958528159,-3, -22, -4, -1, 1, -1, -2, -1
1503958528167,-2, 7, -6, 1, 1, -2, -1, -4
1503958528175,-2, -8, 2, -3, 1, 0, -1, -4
1503958528190,0, -7, 5, -2, -1, -1, -1, -2
1503958528197,0, 15, 0, 2, -2, 0, -1, 1
1503958528205,-1, 0, 1, 3, 0, 0, 2, 1
1503958528219,-1, -15, 1, -2, 2, 0, -1, -1
1503958528227,-1, -10, -5, -3, -2, -1, -1, -4
1503958528234,0, -13, 2, 2, -1, -2, -1, 1
1503958528250,0, -20, -3, 1, -1, 0, -1, 3
1503958528257,2, 11, 14, 0, 1, -1, 0, -3
1503958528265,0, -7, 1, 1, -1, 0, -2, 1
1503958528279,-2, 2, 4, -1, -1, -2, -1, 1
1503958528287,-3, 2, 1, -3, -1, -4, -2, -1
1503958528294,-5, 20, -2, 0, 0, 0, -1, -2
1503958528310,2, 10, -1, -5, 1, -2, -1, -2
1503958528317,-7, -43, -10, 0, -4, -1, -1, -1
1503958528325,-1, 4, 0, -3, -2, -2, -2, -1
1503958528339,1, -19, -3, 1, 0, -1, 0, 2
1503958528347,-3, -4, -7, 2, -2, 1, -3, -3
1503958528354,-1, -5, -2, -1, -2, -1, -1, -1
1503958528370,0, -10, 6, 4, 0, -1, 1, -1
1503958528377,-1, 17, -2, -3, 0, -1, -1, 0
1503958528385,-3, 9, -2, -3, 0, -1, 2, -3
1503958528399,0, 16, -2, -4, 0, -1, 0, -2
1503958528409,-1, -1, -1, -2, -2, -2, -4, -1
1503958528414,0, -4, -5, 3, 2, 1, 0, 0
1503958528430,-2, 9, 1, 3, 1, -1, 0, 0
1503958528437,1, 2, -2, -3, 0, -1, -2, -2
1503958528444,0, -4, -3, 1, -2, -1, -1, 0
1503958528445,-1, -1, -3, 0, -1, -2, 0, -3
1503958528459,2, 1, -5, 1, -2, -2, 0, -1
1503958528467,-1, -16, 2, -1, -3, 0, -1, -1
1503958528474,-2, 13, 3, 4, 1, -2, -3, -2
1503958528489,-7, -20, -9, 2, -1, -1, 0, -1
1503958528496,-4, -15, 6, 4, 1, 0, -2, -4
1503958528504,2, -6, -3, -4, -1, 1, -1, -1
1503958528519,1, -3, -4, -4, -3, 0, 0, -3
1503958528527,2, -5, 2, -3, -3, 1, 0, 0
1503958528534,-1, 3, -6, 0, 0, 0, 0, 0
1503958528550,1, 4, 1, -1, -2, -3, -2, 0
1503958528556,1, 20, 11, -5, -1, -2, 1, 1
1503958528565,-2, 5, 9, 3, 2, -1, -1, -1
1503958528580,-2, -15, -9, 0, 0, 1, 1, -1
1503958528587,1, -7, -5, -3, 1, 0, 0, -2
1503958528594,0, -6, 0, -3, 0, -1, -1, 2
1503958528612,-2, 9, -6, -3, -3, -2, -1, -2
1503958528617,-1, 8, -6, -2, 1, -1, -1, -1
1503958528632,1, -2, 5, -4, 1, -1, -4, -2
1503958528639,0, 5, 8, 2, -1, -1, -2, 0
1503958528648,-5, 11, -6, -2, -1, 0, 0, -1
1503958528662,-1, 6, 1, -5, -1, -2, 0, -1
1503958528670,1, -1, 2, 2, 2, 0, 1, -3
1503958528680,-3, 2, 5, -2, 0, -2, 1, -2
1503958528692,-1, 23, -7, -1, -2, -1, 2, 0
1503958528699,0, -14, 1, -4, -3, -1, -4, 1
1503958528707,0, -17, 1, 3, 1, 1, -1, -3
1503958528722,0, 2, 1, -3, -1, 0, -1, -4
1503958528730,2, -3, -1, -3, -2, -2, 1, 0
1503958528737,-2, -3, 5, 0, -1, 0, 0, -3
1503958528752,-1, 19, -4, 1, 0, 0, 0, 1
1503958528759,-1, -3, -3, -1, -1, -1, -3, 0
1503958528767,0, 19, 5, -2, 3, -2, -1, -1
1503958528782,2, 4, -1, -4, -2, -1, -1, 0
1503958528790,0, -23, 4, 0, -2, 0, -2, 1
1503958528796,-2, -12, -7, 2, -1, -1, 1, -1
1503958528813,0, -8, -2, -2, 0, 0, -1, -2
1503958528819,0, 3, 6, 0, 0, -2, 1, -1
1503958528827,1, 17, 0, -6, -3, 0, 0, 0
1503958528842,-1, 0, -1, -3, -1, -3, 0, -5
1503958528850,-1, -17, 2, -1, -2, -1, -2, 1
1503958528856,-3, -3, -3, 2, 0, 0, 1, 0
1503958528872,-6, -13, -6, -2, -3, -1, -1, -1
1503958528881,0, 22, -9, -1, 1, 2, 1, 1
1503958528888,-1, 19, 3, 4, -1, 0, 0, -3
1503958528902,-1, 1, -1, 0, -3, -1, -3, 1
1503958528910,-3, -5, -1, -1, -2, -2, -2, 1
1503958528917,2, 4, 3, 1, -2, 0, -3, 0
1503958528931,-4, 10, -4, 1, -1, -2, -1, -1
1503958528932,3, -23, 7, 0, -1, -2, -1, 4
1503958528939,2, -12, -9, -2, 0, -1, 2, -2
1503958528948,1, -14, -6, 0, 0, -2, 1, 0
1503958528962,0, -6, 7, 2, 0, -2, -2, 3
1503958528969,-2, -10, -1, -4, -3, 0, -2, -3
1503958528970,-4, 18, 6, 8, 2, 1, 1, -2
1503958528976,-3, -9, 2, -5, -2, 0, -2, -3
1503958528992,1, -8, -1, -4, -4, -1, -2, -3
1503958528999,0, 4, -3, -3, -1, 0, 0, 3
1503958529015,-3, -2, 1, -2, 2, -1, -1, 0
1503958529022,0, -1, -1, -4, -1, 0, 0, 2
1503958529029,4, 1, 2, -6, 0, -2, -1, 2
1503958529036,-6, -3, 2, 2, 3, -3, -2, -2
1503958529052,-1, -7, -1, -3, 0, -1, 0, -3
1503958529059,1, 8, 2, -1, -1, 0, -2, -6
1503958529067,-2, 30, -6, 4, -3, 1, 3, -2
1503958529082,0, -1, 2, 1, 0, -2, -1, -1
1503958529089,-1, 5, -3, -4, -1, -1, 1, -2
1503958529096,1, 7, 2, -3, 0, 0, -1, 1
1503958529112,0, -4, 3, -1, 2, -1, -2, 0
1503958529119,-2, 21, -21, -5, -2, -3, -1, -4
1503958529127,-3, -17, 2, 2, -1, -2, -3, 0
1503958529142,-12, -23, -1, 3, -1, -2, -2, -7
1503958529153,5, -3, 7, -1, -2, -1, 0, 7
1503958529157,2, -4, 4, 0, -6, 0, -1, 2
1503958529172,-1, -11, 0, 0, 2, -2, -2, 3
1503958529188,5, 19, 2, -3, -3, -3, -1, 1
1503958529191,0, 46, -2, -8, -3, 1, 0, -3
1503958529202,-3, -13, -3, 5, 3, 1, 0, -4
1503958529210,0, 16, -1, -5, -3, -2, -2, -3
1503958529217,-6, -33, 5, -1, -2, 0, -1, -4
1503958529232,-4, -10, -4, -3, 4, 1, 1, -1
1503958529239,3, 5, 2, -3, -1, 1, -3, -18
1503958529249,0, 21, -1, 9, 2, 0, 0, 1
1503958529250,8, -19, 3, -6, 0, -2, -2, 6
1503958529262,5, 6, 4, 7, 19, 2, 1, 9
1503958529270,-1, -3, -2, -2, -7, 1, -1, 0
1503958529277,0, -3, 6, 1, -4, 1, 3, 5
1503958529292,-2, -13, 8, 6, 3, 0, -3, 1
1503958529299,-10, 29, -7, 6, 2, -1, -1, -2
1503958529307,-1, -18, -4, -1, -4, 1, -1, -9
1503958529328,14, -32, -3, -11, -7, 0, 1, 4
1503958529330,-13, 20, -5, 4, 0, -2, 1, -12
1503958529336,0, -3, -2, 4, -3, 0, 1, -8
1503958529353,6, 5, 0, 2, -5, 0, 3, 5
1503958529359,2, 9, -5, -3, -4, -2, 0, 8
1503958529367,2, 8, -12, -10, -4, -1, 0, 0
1503958529389,-15, 91, -17, 16, 2, 1, 2, -6
1503958529391,1, -31, 6, -3, 4, 0, -1, 6
1503958529397,1, -15, 14, -6, -3, -2, -3, 6
1503958529411,-5, -3, 2, 3, -1, -1, -3, -1
1503958529419,1, -43, 4, -3, -3, -2, -2, 0
1503958529427,-22, -45, -7, 23, 6, -3, -2, -11
1503958529441,-2, -44, -1, -16, -8, -3, -2, 6
1503958529451,-1, -2, 7, 9, 5, 0, 0, -7
1503958529457,-9, 2, 6, -3, 1, -3, -1, 5
1503958529471,-1, 20, -1, -4, -1, -2, 0, -3
1503958529479,-2, -15, -10, -5, -5, -1, -1, -3
1503958529488,6, 10, -2, -19, -2, -1, 0, 9
1503958529502,-5, 8, 10, 13, 13, 1, 1, -4
1503958529509,3, -32, -6, -21, -10, -3, -3, 1
1503958529518,2, 12, 0, -8, -6, -1, -3, -3
1503958529532,9, 12, 2, -13, -15, -1, 0, 1
1503958529539,-6, -3, -3, 2, -1, 3, -4, -23
1503958529555,6, 18, 4, -15, -6, 1, -3, 1
1503958529562,10, -18, 5, -8, 0, -2, 0, 9
1503958529569,2, -5, 2, -3, -9, 2, -1, 2
1503958529570,-17, -1, -13, 7, 8, -3, 0, -4
1503958529587,9, -7, 19, -6, 1, -2, -4, 5
1503958529592,-5, -4, 1, -1, -1, -1, -1, -8
1503958529599,-7, -27, -17, -9, 5, -2, -4, 3
1503958529614,6, 24, 1, -2, -9, 1, 0, -2
1503958529623,-1, 45, -11, 7, -3, 0, 1, -3
1503958529630,3, 8, -3, 0, 4, -4, 7, 2
1503958529643,9, -7, -5, 1, -6, 1, 6, 2
1503958529663,-3, 63, -8, -6, 0, 1, 9, -6
1503958529664,12, 7, 9, -1, 2, -1, -4, 0
1503958529675,-7, -19, -5, 3, 7, -3, -2, 1
1503958529682,-21, -4, 13, -10, 2, 3, 1, -8
1503958529691,18, 11, -2, 10, 7, 5, 5, 25
1503958529703,6, 37, -3, 6, -8, -5, -1, 3
1503958529712,-18, -1, 3, 4, 9, 6, 0, -2
1503958529724,0, 1, 6, 10, -1, 0, -3, 7
1503958529735,4, 26, 6, -1, -6, -1, 1, 2
1503958529742,-29, 27, 3, -18, -17, -5, -8, -8
1503958529752,-2, -4, 8, -5, -11, -2, -5, 17
1503958529763,0, -6, -6, 14, 12, 4, 8, -12
1503958529771,2, 8, 1, -8, -5, -5, -3, -12
1503958529779,12, 1, -10, 9, 12, 9, 0, -3
1503958529794,3, 2, -1, 13, 9, 5, 4, 1
1503958529801,3, -22, -9, -20, -20, 1, 1, 4
1503958529809,-6, -9, 0, -6, 2, -7, -4, -11
1503958529824,-15, -24, -2, -4, 7, -5, -4, 3
1503958529832,-8, 32, -3, 6, -5, 0, 6, 0
1503958529839,11, -13, 8, -4, 0, 0, -3, 2
1503958529854,-2, 4, 9, 14, 2, -1, -7, -21
1503958529861,5, 13, 3, -1, -3, -3, 3, -11
1503958529869,4, 3, -2, -3, 11, 1, -2, -1
1503958529886,6, -8, -6, -3, -21, -4, -13, 11
1503958529892,-22, -41, -4, -1, -1, -2, -6, -8
1503958529899,-9, -1, -3, 2, 19, -6, -2, -3
1503958529914,5, 3, -11, -5, -15, -5, 5, 13
1503958529923,0, -9, 7, 3, 6, 0, 3, 4
1503958529929,13, 4, -6, 4, 2, -1, -2, -1
1503958529944,-5, 15, 5, 11, 19, 5, 2, -9
1503958529958,1, -10, -7, -10, -26, -3, -5, -5
1503958529959,-7, 15, -5, 3, -1, 2, 2, -13
1503958529974,-2, -5, 6, -5, 6, -1, -1, 0
1503958529981,10, -17, -5, -8, 0, -3, 0, 13
1503958529991,3, 2, -2, -7, 5, -1, -2, 0
1503958530004,-8, -8, 3, -12, 0, -2, -2, 8
1503958530012,-8, 7, 11, -1, 9, 0, -2, -7
1503958530023,13, 4, 6, -15, -1, -4, -4, 9
1503958530034,3, 0, 3, -1, 3, 2, 2, 3
1503958530041,6, 12, -16, 9, 9, -3, -16, -7
1503958530049,-3, -3, 9, 3, -6, 0, 2, -1
1503958530063,-12, -13, 9, -14, -5, 0, -3, -24
1503958530071,-7, 24, -6, 4, 4, -1, 0, -4
1503958530079,2, -30, 4, -5, -8, 0, 2, 4
1503958530094,1, -11, -4, -6, -7, 0, -1, -3
1503958530101,-4, 0, -5, 1, -16, -3, -1, -8
1503958530109,-6, -6, 2, -4, 11, -4, -7, -1
1503958530124,6, -7, 3, 0, -18, -2, 3, 8
1503958530131,0, -19, -6, 5, 5, -1, -1, -4
1503958530139,-10, -11, 9, -3, 11, 1, 9, -12
1503958530155,13, 6, -4, -5, -1, 1, 7, 8
1503958530163,2, 3, -1, 7, -1, 1, 4, 9
1503958530169,-11, -12, -6, 2, -1, 0, -2, -4
1503958530183,1, 16, -4, -4, -6, -2, 1, 4
1503958530192,-29, -8, -6, 11, -12, -2, -4, -12
1503958530199,-5, -20, -3, -1, -2, 0, -2, -3
1503958530214,11, 2, 5, -17, -14, 0, -1, 7
1503958530223,5, 27, 11, 3, -1, 1, -1, 1
1503958530230,5, -7, 5, -9, -5, 0, 0, 3
1503958530244,8, 7, 1, 1, -1, -2, 1, -1
1503958530252,-6, 3, 5, 19, 43, 3, 0, -14
1503958530259,-3, 3, -9, 8, 11, 2, -3, 4
1503958530274,2, 4, 0, 0, -1, 0, -2, 2
1503958530282,1, -12, 2, 2, 5, -1, 1, 1
1503958530291,7, 12, 7, -6, -2, -3, -11, 4
1503958530304,-13, -15, -19, 2, -10, 0, -2, -3
1503958530312,6, 7, -7, 0, -11, -3, 2, 3
1503958530319,4, -1, 1, -1, 21, 1, 2, 3
1503958530334,-2, -10, -6, 3, -6, -2, 1, 3
1503958530341,2, -6, -4, -14, -13, -1, -2, -4
1503958530349,-2, 5, -4, -1, -7, 0, 1, 3
1503958530365,5, -9, -8, -9, -7, -1, 2, 5
1503958530372,-12, 17, 18, 7, -3, 2, 3, -8
1503958530379,-15, 37, 17, 13, 7, -1, 0, -9
1503958530394,2, -8, -5, -4, 15, 0, 3, -1
1503958530401,2, 1, 1, -4, -4, -3, 8, 6
1503958530409,-2, 8, 1, 11, -6, -2, 2, -5
1503958530424,-1, -14, -4, 0, -9, -1, 0, 2
1503958530432,11, -1, -2, -12, -3, -4, -5, -5
1503958530439,-5, -3, 6, 6, 6, 0, 0, -3
1503958530454,4, -8, -6, -6, -4, 0, -4, 9
1503958530462,7, -6, -10, 11, -7, -3, 2, -1
1503958530477,6, -5, -3, 3, 6, 0, 5, 2
1503958530484,-4, -17, 4, 2, 7, -1, -3, 5
1503958530492,3, -14, 3, -15, -3, -1, 2, 7
1503958530506,-3, 2, -2, 5, 13, 1, -4, -2
1503958530514,-3, -13, -11, 0, 18, -2, -3, -7
1503958530522,-5, -12, -5, 1, -2, -3, -12, -9
1503958530536,-2, 1, 1, 5, -8, 0, -3, -3
1503958530544,1, -5, 3, -16, 1, 2, -1, -6
1503958530554,-6, 6, 4, -4, -8, -1, -2, -1
1503958530566,8, 11, 13, -8, -5, 2, 3, 4
1503958530574,6, 33, 2, 3, -5, 0, -2, -4
1503958530581,-1, -5, -8, 1, -4, -5, -5, -3
1503958530597,0, -15, -9, -5, -19, -2, -1, 7
1503958530604,-4, 12, -2, 6, 5, -3, -3, 5
1503958530612,8, 3, 2, -21, -22, -1, -5, -12
1503958530626,-4, -11, 0, -4, 5, 0, 1, -1
1503958530634,-6, -21, 6, -4, -3, -3, -3, 11
1503958530642,1, -23, -16, -1, -3, -2, 8, -3
1503958530662,-1, -5, -6, 3, 4, -1, 4, 14
1503958530664,-3, 22, 0, -2, -5, 1, -3, -3
1503958530672,-7, -7, -3, 2, 5, -1, -4, -8
1503958530686,-1, -12, 1, -5, -6, 1, -2, -2
1503958530695,-4, 8, 2, 13, 12, -1, 4, -11
1503958530702,0, 9, 4, -8, -17, -4, -3, 1
1503958530716,2, -7, -3, -4, 3, -1, -2, 2
1503958530726,2, -2, 1, -18, 0, -1, -4, -2
1503958530732,-4, -23, -13, 2, 5, 3, 1, -30
1503958530746,-8, -1, 1, -1, 3, 2, 0, -2
1503958530754,2, -1, -4, -6, -5, -3, -1, 2
1503958530763,1, 2, 7, 4, -8, 1, 3, 4
1503958530776,0, 0, -3, 0, 5, 2, 2, 0
1503958530784,3, 10, 8, -5, -11, -1, -3, 3
1503958530793,-6, -7, 1, 0, 18, 1, 3, 3
1503958530794,2, 8, 21, -12, -5, 2, -7, -16
1503958530806,0, -3, -6, 3, 7, 3, 3, -6
1503958530814,-1, 11, 4, 0, -1, -4, -2, 7
1503958530822,-2, 5, 7, 8, 1, 0, -3, -2
1503958530836,3, -2, 0, -9, -7, -2, -2, 9
1503958530844,-3, 3, -4, 10, 16, -1, -3, -2
1503958530852,-3, -8, 0, -7, 10, -2, -1, -7
1503958530868,3, 6, -3, -4, -11, -3, -2, 1
1503958530874,1, -1, -5, -1, 0, -2, -1, 1
1503958530881,-4, 10, -4, 5, 0, 0, 3, 0
1503958530897,-4, -5, -1, -11, -1, 1, 6, 8
1503958530904,17, 0, 16, -22, -4, 2, 3, -23
1503958530912,-8, 6, 4, 5, -5, 0, -3, 0
1503958530926,-6, -5, -9, 2, -14, -6, -4, 4
1503958530935,7, 0, 11, -3, 2, 1, 2, 1
1503958530941,2, 0, -3, -5, 1, 0, -3, 4
1503958530956,-6, -11, -10, 8, -5, -4, -4, 6
1503958530964,-4, -3, -8, 3, 1, 0, 0, 4
1503958530972,-6, 5, -2, 9, 16, -1, -2, -5
1503958530986,-2, -5, 11, -9, -1, 0, -4, -16
1503958530994,-7, -4, -7, 10, -5, 1, -1, 11
1503958531003,-7, -11, -15, 13, 3, 0, -9, 7
1503958531016,6, 7, 1, -3, -4, 0, 1, -4
1503958531024,2, -1, -1, -9, -2, -1, 0, 4
1503958531033,3, 8, 3, -7, 2, 0, 2, -20
1503958531046,-1, -20, 3, -2, 5, -1, -1, -12
1503958531054,0, 2, 0, 0, 0, -1, -4, -1
1503958531061,-2, 11, 8, 6, 1, -1, 1, 6
1503958531076,7, 11, 13, -11, -7, -1, -3, 1
1503958531084,-27, -10, -6, 8, -1, 0, 3, 6
1503958531094,3, 2, 5, -5, 1, -1, 1, 2
1503958531095,-4, 2, -1, 0, -3, -1, -3, -2
1503958531106,5, 0, 3, -12, 4, -3, -5, 1
1503958531114,5, -6, -10, -2, -7, 0, 3, 9
1503958531122,-1, -1, 3, -5, -4, -2, 7, -2
1503958531137,2, 7, 1, -12, -17, 0, -1, 1
1503958531144,-4, 2, -3, -2, -4, -1, -1, -6
1503958531162,1, -1, 1, -1, 6, 2, -5, -10
1503958531166,8, 0, -2, -1, -6, -1, -2, 6
1503958531174,-7, -8, 18, -10, 3, -2, 0, -9
1503958531189,-20, 3, -4, 6, 3, -2, 1, -4
1503958531199,-8, 0, -1, 1, -2, -3, -2, -13
1503958531204,0, -4, 3, -7, 0, -1, -2, 1
1503958531212,-6, -3, -11, 7, 2, -1, 0, -4
1503958531226,12, -2, 0, -3, -1, 1, -17, -21
1503958531234,8, 2, -6, 7, 0, -1, -1, 13
1503958531241,4, 8, 3, -3, 21, 0, 0, 10
1503958531256,1, -2, -5, 5, -3, 0, 5, 5
1503958531264,2, 13, 3, 4, 2, 1, 2, 7
1503958531272,2, -6, -10, 7, -4, -1, -1, 7
1503958531286,1, -19, -11, -4, -5, -1, 2, -8
1503958531296,10, -5, 12, -10, 1, 0, -4, 1
1503958531301,0, 20, 1, 0, -6, 0, 4, 2
1503958531316,-5, 12, -3, -2, 4, -2, 0, -2
1503958531324,3, 7, -3, -8, -5, 0, 5, 10
1503958531333,2, -2, -8, 7, 4, 0, -7, -1
1503958531346,1, 0, -2, 3, 2, 0, -1, 7
1503958531354,-4, -3, 5, -6, -4, -3, 1, -7
1503958531363,-2, -17, -1, 2, -2, -2, 0, 4
1503958531376,-5, -9, -9, 0, -6, 0, 4, 1
1503958531384,-1, 22, 13, -5, 3, 2, -2, -5
1503958531392,-4, 0, -1, 4, 1, -3, 0, 0
1503958531406,-4, -5, 5, 5, 0, -1, -2, -2
1503958531414,-6, -3, 6, -4, 0, -1, -2, 7
1503958531431,-1, -10, 4, -5, -4, -1, -1, -3
1503958531437,-1, -5, -3, 1, -2, 0, 1, -3
1503958531444,1, -2, -10, 2, -10, -4, -1, -4
1503958531459,-3, -14, -4, -2, -1, 1, 1, 0
1503958531466,-6, -24, -8, 1, -2, -3, 0, -6
1503958531474,5, 3, 0, -4, -2, 4, 4, -10
1503958531488,0, -10, -8, 3, 1, -2, 1, 0
1503958531497,-4, 2, 3, 4, 4, -2, -4, 4
1503958531504,2, 20, 1, 10, -1, 0, 3, 1
1503958531519,4, 6, -1, -2, -1, -1, 1, 2
1503958531526,1, -6, 1, -8, 1, 0, -4, 5
1503958531534,1, 0, 7, -6, 3, -1, -4, -6
1503958531548,1, 8, -1, -2, -7, -1, -2, -7
1503958531556,-2, 10, 9, -3, 14, 2, 1, -12
1503958531564,11, -1, -2, -7, -17, -2, -4, -2
1503958531565,-6, 10, 24, -7, 5, 3, -6, -7
1503958531579,-5, 15, -1, 3, 0, -1, -1, 2
1503958531586,5, 10, -6, -1, 0, -2, 1, -1
1503958531594,-1, -3, -2, -8, -3, -1, 10, 4
1503958531608,2, -6, -4, 3, 0, 1, 6, 2
1503958531617,1, 1, -5, -4, -4, -3, -1, 2
1503958531624,-3, -23, -2, -6, -2, 0, -4, -4
1503958531640,2, -15, -2, -2, -7, -2, -4, -2
1503958531645,-2, 1, -3, 2, -1, -2, -4, 4
1503958531646,1, -4, -1, 0, 0, -1, 1, -3
1503958531654,-9, -14, -3, -2, -7, -1, -2, 1
1503958531668,4, 0, -6, -1, 1, -1, -2, 2
1503958531676,4, 10, -7, 2, -6, 0, 1, 0
1503958531684,0, -14, 3, 2, -2, -2, 5, 1
1503958531699,1, -1, 5, 2, 4, 0, -4, -1
1503958531706,-3, 15, 2, -5, -3, -2, -2, 2
1503958531714,1, -3, 1, 3, -1, 0, -3, 1
1503958531728,1, -18, -4, -8, -4, -3, 0, -14
1503958531736,-8, 7, 22, 6, 6, -1, -5, -2
1503958531744,0, 6, 1, 0, 0, -1, -6, -5
1503958531759,3, -1, -7, -5, -7, -2, 1, 2
1503958531766,-5, -7, -4, -2, -6, -1, 2, 7
1503958531774,-4, 3, 6, 0, -2, 1, -2, -5
1503958531775,-1, 10, -4, -4, -2, 0, 1, 2
1503958531788,7, 12, -9, 7, 0, -2, -15, 1
1503958531796,8, 24, 18, 1, 2, -2, -6, -2
1503958531804,-5, -14, 1, -1, 3, -2, 1, -3
1503958531819,-6, -9, 1, 14, 7, 0, 3, -6
1503958531826,-3, 12, 5, -1, 3, 1, 0, 6
1503958531834,3, -7, -8, -4, -1, -3, 0, -7
1503958531848,3, 8, 4, -8, -1, -2, -2, 2
1503958531856,-3, -15, -6, -10, -2, 0, -1, 1
1503958531864,0, -11, -5, 1, -1, -1, 4, -1
1503958531879,0, 11, -6, 2, 1, 1, 2, 4
1503958531885,-2, -11, -3, -1, -2, 1, 4, -4
1503958531894,-10, -11, -2, 2, -5, 0, -3, -5
1503958531909,-9, 6, -2, 16, 15, 1, 3, -3
1503958531916,3, -6, -1, -8, 0, 2, -1, 1
1503958531924,3, -5, -3, -4, -2, 1, -2, -1
1503958531939,-5, -15, -7, -3, -3, -3, -1, 0
1503958531946,0, -12, -6, -10, -10, -2, -1, 0
1503958531954,-1, 25, 8, 0, -6, 0, -3, -7
1503958531969,-4, 6, 13, -3, -4, -1, 1, 5
1503958531976,-1, -13, -10, 0, -3, -2, 3, 5
1503958531984,-2, 7, 10, -8, 14, 2, -3, -1
1503958532007,-4, -11, -14, -4, -10, -1, -1, 2
1503958532008,3, -19, 5, -11, -12, -2, -2, 3
1503958532014,-9, -12, -10, -1, -2, -2, -2, -4
1503958532028,-4, -11, -7, 3, 3, 0, -2, -1
1503958532037,4, 7, 5, -3, -1, -2, -2, 9
1503958532044,-1, 36, 5, 8, -3, -4, -1, -1
1503958532059,-3, 0, -2, 0, -8, -5, -3, 0
1503958532066,1, 2, -22, -6, -6, -3, 0, -3
1503958532080,0, -1, 0, -1, 3, -4, -7, -7
1503958532088,-2, -9, -1, -2, -3, 0, 2, 2
1503958532096,-13, -39, 0, -10, -1, 3, -1, -1
1503958532104,6, 16, 15, 0, -1, 0, 4, 5
1503958532119,3, 49, 11, -8, -3, -1, 4, -1
1503958532126,-4, -8, 0, -2, -2, -3, -4, -6
1503958532135,5, -24, -7, -5, 3, 1, 1, 1
1503958532148,-2, 5, -11, 9, -3, -2, -4, -3
1503958532156,8, 17, 0, 3, -11, -2, -4, -3
1503958532164,-5, -22, -8, -11, 1, 2, -2, -3
1503958532179,-5, -4, 4, -3, -3, -1, 2, 1
1503958532186,6, 13, 8, 2, -1, -1, -7, -2
1503958532194,-8, -11, 15, -5, 4, -1, -6, -4
1503958532208,-5, 57, -3, 10, 0, -2, 7, 1
1503958532216,18, 9, 3, -1, -2, -1, 0, 1
1503958532224,8, -37, -12, -4, 8, 1, 0, 4
1503958532239,4, -13, -4, -5, -4, -2, 0, -5
1503958532246,-8, -24, -5, -6, -5, -4, -8, -7
1503958532254,26, -9, -10, -4, -2, -5, 2, 9
1503958532271,-8, -2, 5, -8, -9, -5, -8, 2
1503958532277,-18, 41, 2, 16, 4, 10, -2, -6
1503958532284,1, 3, 8, -2, -2, -1, -4, 10
1503958532299,-5, 53, 28, 7, 8, -3, 1, 7
1503958532306,-14, 7, 0, 3, 3, 0, 1, -12
1503958532314,-14, -35, -13, 1, -2, -1, -1, -4
1503958532328,11, -5, 9, -8, 0, -1, -3, -2
1503958532340,-2, -46, -3, -12, -6, -2, -3, 3
1503958532351,0, -4, 5, 1, 0, -1, -2, -1
1503958532359,-2, -9, -6, -1, -4, -1, -1, -8
1503958532366,-1, 9, -7, 3, 2, 7, 6, 5
1503958532382,-4, -4, 4, -8, 2, -3, -3, -6
1503958532388,-2, 1, -6, 11, -3, -5, 15, 10
1503958532396,10, 15, 1, 3, 0, -4, -3, 4
1503958532411,-8, -4, 9, -3, 8, 1, -4, -7
1503958532419,-4, -19, -12, 3, 1, 1, 9, -3
1503958532426,3, -19, 6, -6, -3, -4, 0, -2
1503958532442,-4, -37, -7, 0, -6, -1, -2, -3
1503958532456,16, -9, -5, 1, -2, 0, 3, -7
1503958532457,2, 17, 1, -4, -3, -3, -5, 0
1503958532458,-7, -12, 3, -7, 16, 0, -5, 0
1503958532473,7, 3, -10, -5, -5, -3, -5, 3
1503958532479,0, 10, 5, 0, 1, 1, -1, 10
1503958532487,-1, -6, 15, -11, 2, 1, -7, 1
1503958532501,5, 5, -6, 2, 2, -2, -12, 3
1503958532509,-4, -10, 2, 2, 4, 0, 3, -9
1503958532510,-2, -9, 1, 0, -8, 1, 3, 3
1503958532516,-2, 8, 4, -5, -1, -2, 2, -2
1503958532532,-3, -2, -1, 7, 9, -2, 2, -5
1503958532542,1, 3, -18, 8, -7, -1, 11, 13
1503958532547,-25, 4, 3, 4, 8, -1, -1, -13
1503958532561,12, -26, -3, -4, 3, -3, -4, 0
1503958532562,-6, 62, 23, 3, 1, 0, 3, -4
1503958532571,5, 8, -8, -1, -4, 0, -2, 1
1503958532576,2, -7, -4, -8, -5, 2, 0, -9
1503958532592,8, 10, 9, -2, -2, 2, 4, 4
1503958532599,4, -5, -6, 1, 5, 6, 7, 1
1503958532607,8, -4, -4, -6, -6, 0, 3, -5
1503958532622,-7, 23, 11, -2, 2, 0, -1, 8
1503958532629,-1, -22, 1, -5, 3, -3, -6, -5
1503958532640,7, -11, -12, -9, -11, -3, -2, -1
1503958532652,-2, 6, -1, 3, -5, 0, 1, 8
1503958532659,-1, -23, -3, -2, -3, -2, 1, -1
1503958532667,-5, -8, -7, 9, 6, 2, 1, -1
1503958532681,5, -4, -8, 2, -9, -4, 0, -6
1503958532689,0, 9, 12, -6, -2, -2, 1, 4
1503958532696,-30, -4, 6, -6, 1, -1, -2, -6
1503958532712,-3, -28, -10, -1, 0, -3, -3, -4
1503958532719,3, -14, -3, -7, -2, 0, -3, -6
1503958532727,6, -1, 6, -12, -1, -1, -5, -12
1503958532742,-6, -9, -6, 0, 0, 0, 1, -4
1503958532749,-13, 10, -4, 7, -2, 1, -4, -7
1503958532756,6, 0, 3, -3, 4, 2, -6, -2
1503958532774,-14, 5, -10, -3, -13, -3, -13, -5
1503958532780,5, 6, 9, -1, -1, -1, -2, -4
1503958532787,-22, -10, -14, 0, 2, -1, 5, -3
1503958532801,-2, -8, -7, -1, -5, -2, -3, -5
1503958532809,15, -1, 11, -6, 1, -1, 2, 8
1503958532817,7, -1, 1, 2, -1, -2, 1, 12
1503958532832,29, 2, 5, -1, 0, 2, 4, 15
1503958532841,9, 6, 12, -2, 3, 0, 0, 9
1503958532847,2, 11, 5, -3, 2, 1, -1, -1
1503958532861,-1, -5, -6, 1, -1, -2, -17, 0
1503958532869,5, 11, 3, 3, 0, 0, 4, 10
1503958532876,-5, 6, -4, 1, -1, -1, 6, -5
1503958532892,-30, -4, -12, 8, -4, -5, -4, -4
1503958532899,0, -7, -1, -1, -2, 0, 4, 0
1503958532908,-3, -1, 2, 3, 0, -1, 0, 4
1503958532922,-3, 4, -6, -1, -2, -2, -1, -5
1503958532929,2, -2, -5, 4, -3, -1, 1, -2
1503958532936,-22, -6, -7, 10, -1, 1, -4, -32
1503958532952,3, -3, -1, -5, -1, 3, 12, -4
1503958532959,4, 3, 2, -5, 0, 1, 12, 15
1503958532976,8, 12, 3, -2, -2, -5, -13, -14
1503958532989,7, -3, -1, 5, 1, -1, -2, -14
1503958532990,3, 6, 14, 0, -1, 1, 0, 19
1503958532996,13, 10, -6, -3, -4, -2, -1, 6
1503958533012,4, -6, -8, -1, 1, -3, -2, 2
1503958533019,-3, -2, 11, 2, 3, -1, 2, 6
1503958533034,2, 4, -9, 3, -1, 0, -1, -8
1503958533042,15, 9, 0, -17, -7, -3, -5, -5
1503958533050,-18, -14, 2, 0, -7, -1, -1, -3
1503958533056,-5, 4, 9, -1, 7, 0, 4, 6
1503958533075,7, -2, -3, -5, 2, 0, 0, -6
1503958533079,-3, 5, -7, -7, -2, 1, -1, 6
1503958533094,-19, -11, -7, 4, 1, 3, 4, -32
1503958533101,11, -13, -12, -11, -19, -3, -2, 7
1503958533112,2, 22, -5, -1, -13, -6, -7, -5
1503958533117,-10, -7, 7, 3, 6, 0, -1, -3
1503958533132,4, -1, 4, -4, 2, -3, 5, 8
1503958533139,-17, -18, -9, -2, -4, -3, -4, -15
1503958533154,7, 12, 14, -1, 11, 0, -5, 1
1503958533161,3, 9, 3, 0, -3, -2, 2, -4
1503958533169,-2, -8, 3, 6, 9, 1, -1, -4
1503958533178,-2, 0, 2, -18, -10, 1, 3, 2
1503958533192,-6, -2, 9, -13, 6, 5, 0, 7
1503958533199,-7, -12, -4, 10, 8, -2, -7, -15
1503958533214,9, -1, -6, 2, -5, 1, -1, 2
1503958533221,-21, -6, -6, 14, 0, -4, 1, -18
1503958533229,-3, -18, -1, -10, 0, -1, -4, -7
1503958533236,14, 12, 11, -8, 1, -1, -1, 17
1503958533252,1, 1, 0, -2, -2, -1, 8, 9
1503958533259,0, -7, -3, 3, 0, -2, -2, 9
1503958533277,7, -5, -2, -14, -11, -4, -8, 5
1503958533281,26, 24, 9, 12, 8, -4, -10, 7
1503958533297,11, 37, 11, -6, 2, 1, -4, 2
1503958533304,4, 17, -4, -7, -3, 1, 7, 5
1503958533312,-2, -13, 8, 0, 6, 0, 11, 3
1503958533319,-13, -7, 9, 7, 11, 2, 2, -20
1503958533334,-6, -3, -8, -1, -23, -3, -5, -4
1503958533345,-9, -9, -1, -2, -9, 3, 2, -5
1503958533350,-2, -1, 5, -1, 3, 5, -13, -21
1503958533364,-3, -3, 2, -7, 1, -1, -6, 2
1503958533373,-7, 0, -6, -2, -6, -3, 0, 4
1503958533379,-5, 5, -6, -5, -2, -6, -2, -1
1503958533394,0, 0, -13, 12, 1, -3, 4, 0
1503958533401,3, -8, -2, -5, -8, -2, 3, 13
1503958533410,-4, 3, -2, -4, 2, 1, -3, 6
1503958533424,-7, -16, -10, 1, 11, -2, -7, 8
1503958533432,-1, -27, -17, -26, -18, -4, -5, -3
1503958533439,-2, -12, -1, 2, -16, -6, -10, -14
1503958533454,-1, 8, -1, 9, -5, -3, -5, -4
1503958533462,2, -2, 9, -8, -1, 4, -2, 5
1503958533470,3, -3, 10, 1, 10, -1, -4, -3
1503958533484,-5, 21, 20, 10, 7, 3, 5, -2
1503958533492,2, 2, 5, 0, 9, 2, 7, 8
1503958533499,-1, -13, -12, 1, -3, -4, 3, -3
1503958533515,-1, -11, -11, 11, 1, -3, 3, -3
1503958533521,13, 9, 3, -9, 8, 3, -1, 4
1503958533529,-9, 26, 14, 6, 5, 0, 3, -30
1503958533544,7, 9, -26, -31, -27, -7, -3, 10
1503958533552,-2, -15, -3, -13, -6, -2, -3, 4
1503958533559,-3, -7, -3, 4, 1, 3, 12, 5
1503958533574,0, 9, -6, 8, -6, 0, 7, 11
1503958533582,8, -1, -9, -2, -6, -3, -3, 1
1503958533589,-13, -20, -4, 16, -10, -1, 2, -3
1503958533612,-7, -9, 8, 3, 7, 4, 7, 1
1503958533613,-25, 1, -5, 0, -2, -4, -5, -32
1503958533619,-7, 0, 7, 4, 6, 3, -1, -13
1503958533634,11, -7, -11, 2, 6, -2, -1, 29
1503958533641,-6, 7, 7, 3, 2, -1, -3, -5
1503958533649,13, -1, -8, -31, -27, -2, -5, 10
1503958533664,-4, -3, -2, 11, -3, -1, -3, -4
1503958533672,8, 10, 5, 2, 10, 0, 0, 6
1503958533679,6, 8, 24, -18, 4, 1, -6, -25
1503958533694,12, 9, -7, 2, -7, 0, 16, -8
1503958533701,-6, -3, 1, 6, 12, -1, 3, 9
1503958533709,9, -1, 11, -11, 6, 3, -3, 8
1503958533724,-7, -6, -9, 4, 0, 0, -2, -3
1503958533732,0, 0, 3, 15, 6, 0, -6, -8
1503958533739,0, 6, -11, 4, -9, -2, -13, 7
1503958533755,-3, 2, 9, 2, 13, 0, -1, 5
1503958533761,-1, 1, 7, 1, -2, 1, 0, 3
1503958533770,5, -14, -18, -5, -5, 0, 2, 4
1503958533784,5, -3, -10, -4, -5, 0, 7, 21
1503958533792,1, -3, 17, -10, 7, -2, -2, -15
1503958533799,-7, -9, -1, 3, -3, -1, 2, 4
1503958533814,6, 0, 9, -2, 1, 0, -5, 6
1503958533822,-4, -11, -1, -4, -1, -3, 2, -9
1503958533829,5, 11, 26, -11, 5, 0, 2, 3
1503958533844,-9, -12, -12, 8, 3, -3, 15, -3
1503958533852,-11, 11, -5, 8, 4, 0, 0, -3
1503958533859,-9, 3, 6, -9, 2, -1, -2, -1
1503958533874,-1, 9, -3, 6, -1, -2, -7, -2
1503958533882,10, -3, -3, -8, -3, -4, -4, 1
1503958533890,-17, -11, -5, 3, 3, 0, -3, -1
1503958533904,4, 12, 12, -1, 7, 1, 0, -7
1503958533913,-7, -2, -1, -6, -4, 0, 6, 1
1503958533919,-5, 9, 0, -4, -3, 1, -1, 8
1503958533934,3, 1, -9, 8, -4, 0, 12, -1
1503958533941,-3, -10, -8, 0, -4, -2, 2, 9
1503958533949,0, -6, -13, -9, -7, -2, -6, 9
1503958533964,11, 9, 2, -3, -1, -2, -7, 1
1503958533972,2, 2, 3, -11, -15, -5, -10, -8
1503958533979,-5, -5, -3, -11, -4, -4, -5, -11
1503958533994,8, -8, -8, -7, -16, -4, 1, 5
1503958534001,0, 2, 7, 4, 2, -1, -6, 5
1503958534009,-13, 26, 2, 17, 7, -2, 3, 5
1503958534024,-2, -5, 0, 4, -2, 1, 5, -4
1503958534032,-29, -23, 20, -21, -1, -2, -9, -49
1503958534039,-6, -9, -15, 10, 3, -3, 7, -1
1503958534055,-15, -18, -10, 0, 1, -2, 0, 5
1503958534061,2, 1, 4, -4, -4, -3, -3, -13
1503958534075,0, -9, -3, 6, 6, 4, 6, 22
1503958534084,-39, -8, -25, 33, 1, 1, -6, -19
1503958534092,14, 12, 8, -8, 5, 0, 0, 9
1503958534099,11, -1, 1, -4, 1, 3, 4, -2
1503958534123,9, 7, 3, -21, -2, -1, -4, 1
1503958534129,-11, -6, -17, 16, 7, 4, 11, -8
1503958534144,18, 22, 3, 15, 3, -3, -1, -6
1503958534152,11, 18, 17, -3, 5, 4, -1, 1
1503958534159,12, -13, -2, -6, -1, -1, -4, 26
1503958534174,-9, -5, 5, -4, -1, -3, -10, -25
1503958534183,-4, 0, -1, -7, -1, 2, -8, 6
1503958534189,7, 4, 3, 7, 16, 2, -1, 16
1503958534204,1, 24, 12, 7, 2, 4, 8, -4
1503958534212,-61, -10, -20, 13, 1, -4, -6, -27
1503958534226,9, 0, 16, 3, 0, 0, 2, -2
1503958534240,26, 3, 7, -5, 0, -1, -2, 13
1503958534242,-1, -6, -3, -11, -4, -8, -12, -33
1503958534256,11, 0, 17, -14, -2, -2, -2, 11
1503958534264,-2, -21, -10, -9, -1, -3, 6, 11
1503958534272,19, 11, 7, 5, -4, 0, 1, 9
1503958534287,8, 5, 6, -7, 4, 2, 2, 13
1503958534294,10, -2, -3, -7, -13, -2, 1, -7
1503958534302,-1, -2, 3, 2, 12, 0, -1, -6
1503958534317,3, 4, 1, 0, -1, 6, 6, 7
1503958534324,-2, -1, 1, 4, -7, 0, -11, -18
1503958534332,1, -12, -1, -8, 3, -5, -1, -9
1503958534346,-7, -10, 14, -8, 11, 2, -2, 3
1503958534357,1, -12, -11, -16, -20, -4, -5, 4
1503958534362,3, 23, -10, -2, -13, 1, 2, 0
1503958534376,-3, -2, -5, 4, 4, -4, 2, 16
1503958534385,-16, -21, -8, -2, -3, -5, -4, -2
1503958534393,3, 15, 8, 3, 4, -1, -4, 9
1503958534406,10, 0, 3, -7, -3, -4, -6, -13
1503958534414,8, -2, -13, 8, 0, -5, 2, 3
1503958534423,-8, -3, 5, -10, -6, -1, 0, -9
1503958534436,-11, 5, -5, 6, 5, 1, 0, -18
1503958534444,-7, -15, 1, -5, -1, 0, -5, 2
1503958534455,-7, 8, 9, -1, 9, -1, -7, -7
1503958534466,-9, -7, -3, 2, -2, -1, 5, 2
1503958534475,-9, -12, -17, 5, -5, -2, -2, -16
1503958534482,-26, 3, 3, 7, 0, -1, 0, 1
1503958534497,20, 13, 3, -4, -4, 2, 1, 9
1503958534504,-11, -12, 4, -4, 4, 1, -5, -30
1503958534512,17, -10, 6, -21, 0, 3, 0, -14
1503958534527,-5, -9, 5, -11, -3, -1, 1, -11
1503958534534,-4, -11, -1, -3, 2, 2, 2, 10
1503958534542,0, -13, -13, 8, -3, -3, -5, 13
1503958534557,-9, 12, 16, 2, -2, -3, -1, -8
1503958534564,7, 8, -7, 5, -3, 0, 7, 11
1503958534572,6, -11, -22, 24, 1, -5, -10, -7
1503958534587,13, 10, 13, -14, 0, 1, -3, 7
1503958534595,-1, -1, 8, -10, 1, 0, 3, 2
1503958534602,9, 16, 7, -3, -1, 2, 5, 5
1503958534616,-15, -22, 15, -19, -6, -3, -4, 2
1503958534625,55, 9, -15, -1, -6, -3, 7, 22
1503958534632,-12, 28, 5, -1, 4, 3, -2, 3
1503958534646,-16, 0, -13, 11, -4, -2, 1, 5
1503958534656,-6, 2, -2, -5, -4, -2, 1, -4
1503958534662,-3, -6, 4, 6, 11, 5, 15, 8
1503958534676,3, 11, 10, -5, 2, 2, 6, -3
1503958534687,-3, 8, 4, -4, -3, 2, -4, -7
1503958534692,18, 15, -14, 3, -4, -1, -2, 2
1503958534706,-24, -22, -9, 0, 0, -3, -3, 0
1503958534714,-10, -15, 2, -9, -3, -2, -7, -18
1503958534722,15, -1, -12, 0, -4, -2, -2, 9
1503958534736,-17, -4, 5, 5, 3, 1, -1, -9
1503958534744,5, 5, -2, -7, -2, 0, -2, 3
1503958534759,11, -12, 6, 2, 13, 1, 4, 6
1503958534766,-3, 20, 12, 12, 7, 1, -4, -23
1503958534774,-6, 12, 1, -5, -7, 0, -1, 5
1503958534781,-9, 7, 5, -1, -5, -3, -2, 0
1503958534796,10, -22, -3, -8, -4, 0, 3, 8
1503958534804,-2, -13, 1, -5, -3, -2, -6, -8
1503958534812,-1, -10, -2, -4, -5, -3, -3, 16
1503958534826,11, -23, -13, 1, -2, -3, 5, 0
1503958534834,0, -7, -13, 2, -4, -3, -2, -9
1503958534841,2, 5, 9, -11, -3, -3, -2, -1
1503958534856,5, -3, -2, 0, 1, -3, -2, 13
1503958534864,-1, 46, 17, 3, 3, 0, -3, -5
1503958534879,12, 17, 10, 4, 3, 5, 6, 1
1503958534888,-12, -16, -16, 0, -5, -3, 0, 16
1503958534894,-9, 11, 2, 2, 0, -1, -2, -3
1503958534901,24, -5, -3, 0, 0, -3, -4, 9
1503958534916,4, -14, -15, -1, -2, -3, -4, -6
1503958534924,-10, -6, 15, -13, -3, 1, -6, -3
1503958534932,-11, -26, -12, 2, -5, 1, 2, -1
1503958534946,-4, -19, -1, 1, 1, 2, -4, -9
1503958534956,-18, 5, -2, -2, -5, -4, 1, 5
1503958534961,-8, 3, -8, 1, 1, 1, 0, -1
1503958534976,-14, -7, -6, 0, -1, -2, -1, -3
1503958534984,14, -6, -8, -5, -1, -1, -1, -5
1503958534999,4, 16, 5, -1, 2, 2, 5, 1
1503958535006,-5, 29, 18, 3, 6, 5, 6, 0
1503958535023,-3, 7, 5, -7, 4, -1, -1, 16
1503958535036,2, 11, -5, 7, -4, -1, 1, 13
1503958535044,-27, -3, -10, 3, -2, -5, -6, -10
1503958535052,-2, -6, 0, 2, -7, -2, -2, 2
1503958535066,3, 22, 9, -2, 0, 0, 2, 0
1503958535075,-10, 23, 3, 2, 0, 0, -6, -9
1503958535081,1, -12, -7, 0, -2, -1, 1, -8
1503958535096,-3, 3, 3, -2, 4, 1, -2, -6
1503958535104,-3, -22, -5, -7, -9, -4, -2, 5
1503958535112,0, -4, -1, -3, 1, -1, -2, -8
1503958535126,2, 28, 17, 3, 4, 2, 3, -2
1503958535134,7, -2, 4, -13, -8, -4, -1, -6
1503958535148,10, -7, -2, -4, -2, -2, -2, 1
1503958535161,-1, 6, 3, 1, 4, -1, -2, -4
1503958535164,-22, -5, -11, 8, -4, -2, 0, -3
1503958535179,-6, -7, -4, 2, -3, 0, 3, 7
1503958535188,-5, -22, -12, 4, -2, -2, 0, 2
1503958535194,3, 13, 6, -2, -1, 0, -2, -2
1503958535208,0, -7, -2, -2, -2, 1, -2, -1
1503958535216,4, -5, -8, -4, -2, 0, 2, -9
1503958535224,7, 5, 5, 0, -3, -3, -2, -4
1503958535239,4, 0, 5, -2, 0, 1, 2, -1
1503958535246,0, -5, -3, -6, 1, 1, 6, -6
1503958535257,5, 4, 2, -6, 1, -1, -4, -4
1503958535268,1, -26, -6, 0, -3, -2, -2, 14
1503958535276,0, -17, 1, 0, 1, -2, -2, -10
1503958535284,2, -19, -1, -1, -2, -3, -3, -4
1503958535299,-3, -20, -2, 4, -1, 1, -4, 6
1503958535306,-13, 0, -2, 3, -1, -1, 0, -4
1503958535314,-4, 19, -3, 0, -1, -1, 1, 0
1503958535328,4, 2, 1, -6, 3, 0, 0, -7
1503958535336,-4, -2, 1, 3, 0, -3, 0, 5
1503958535344,0, 20, 11, 1, 1, 0, -3, -5
1503958535359,-3, -9, -2, 0, -2, 0, 3, 4
1503958535366,2, -35, -8, -8, -5, -1, 1, -7
1503958535374,-8, 2, -2, 1, -1, -2, 4, -12
1503958535388,-7, -9, -1, 2, -2, -2, 1, 6
1503958535397,-2, -8, -4, -4, -2, 0, 0, 4
1503958535404,3, 8, -3, 2, 0, 1, -1, -3
1503958535419,1, 5, 4, -3, 2, -1, -4, 2
1503958535426,-4, 4, -1, 2, -2, -2, -2, 1
1503958535434,-21, -8, 4, -4, -2, 0, -7, -10
1503958535448,0, 7, 2, -2, -1, 0, -2, -4
1503958535460,16, 0, -3, -2, -2, -4, -2, 0
1503958535464,-3, 12, 7, -4, 2, -1, -4, 5
1503958535479,7, -4, 2, -6, -1, 2, 3, 4
1503958535487,8, -5, -4, -1, -4, -1, 3, -18
1503958535496,5, -5, -2, 3, 3, -3, -3, -1
1503958535508,-4, 4, -1, -7, 0, -1, -4, 4
1503958535516,6, 13, -3, -3, -3, 1, -1, -1
1503958535526,8, 5, -3, 3, -5, 0, -2, -3
1503958535539,-7, 31, 16, 5, 2, 2, 1, 7
1503958535546,-2, 16, -5, 4, -2, -2, 1, -5
1503958535554,-3, -12, -3, -7, 2, -1, -2, -1
1503958535568,2, 4, 12, -12, 7, 0, -2, -5
1503958535576,5, -5, -11, 2, -7, -1, 0, -4
1503958535584,-2, -22, -6, 0, -5, 1, -3, -3
1503958535599,1, -16, -6, -1, -3, 1, 1, 4
1503958535606,12, 7, -2, -5, 0, 0, -1, 5
1503958535614,3, 6, 8, 1, 0, -1, 0, 1
1503958535629,-6, 3, -5, 4, 0, -3, -1, -1
1503958535636,-3, 3, 8, -7, 1, -1, -3, 0
1503958535644,0, 3, 8, 1, 2, 0, 1, 4
1503958535660,0, -8, 1, -1, -1, 0, -4, 0
1503958535666,-5, -5, -2, 1, 0, 1, 1, -1
1503958535674,-15, -30, -1, 3, 0, -2, -3, 3
1503958535689,-1, -9, -1, 2, 1, -1, 1, 5
1503958535697,1, 1, -9, 7, -4, 0, 3, 2
1503958535704,-8, -1, 12, -5, 0, -1, -6, -11
1503958535719,-5, -2, -10, 2, -2, -2, -2, -6
1503958535728,0, 7, -2, -1, 1, 0, 1, 4
1503958535736,1, -6, -9, -2, -10, -2, -2, -6
1503958535748,-5, 28, 9, 0, 0, -1, -3, -1
1503958535756,5, -5, 1, -11, -10, 2, 1, 4
1503958535764,-3, -11, -7, 5, -1, -1, 0, -4
1503958535779,2, 15, 13, 3, 5, -1, -2, -3
1503958535788,8, -16, 2, -7, 0, -1, 0, 11
1503958535796,11, -16, -4, 4, 2, -4, 1, 3
1503958535808,-8, -8, -5, 8, 0, 1, 7, 2
1503958535816,-9, 25, 17, 2, 3, 0, -1, -1
1503958535824,-10, 5, -9, 0, -6, -3, -2, 1
1503958535839,5, -15, -4, -2, -3, 1, 2, 0
1503958535846,-22, -14, 17, -6, 7, 3, -5, -12
1503958535856,-12, 5, 10, 3, 4, -1, -4, 0
1503958535868,4, 17, 4, 1, -3, -3, -1, -1
1503958535877,9, 1, -3, -7, 2, 2, 0, -4
1503958535884,4, -1, -9, -3, -1, -1, 0, -4
1503958535905,1, 5, -5, -1, 5, -1, 1, 2
1503958535906,6, -19, -2, -8, 3, -1, -3, 2
1503958535914,-15, 16, -2, -1, -5, -1, 1, -10
1503958535929,12, 13, -12, -2, -9, 0, 0, 0
1503958535937,-6, -20, -15, -2, -10, -2, -2, -3
1503958535944,11, 5, 2, -4, -2, 2, 3, -1
1503958535959,-8, 9, -10, 1, -3, -1, 2, -2
1503958535967,-9, 35, 8, 6, 2, 0, 0, 5
1503958535974,0, -11, -7, -2, -3, -2, -1, -9
1503958535990,0, 14, -6, -6, -1, 1, 0, -4
1503958535997,-6, -7, 7, -1, 11, 1, -4, 10
1503958536004,18, -42, 3, -4, 0, -3, -1, 2
1503958536019,2, 14, 8, -2, -3, 1, -1, 4
1503958536031,7, -11, -14, 2, -11, -4, 1, -3
1503958536035,-1, 3, 4, 3, -4, -1, 0, -2
1503958536048,-8, -1, -3, -7, 0, -2, -3, -17
1503958536056,2, 48, 22, -11, 8, 1, -5, -3
1503958536071,0, -12, -8, 4, 0, 0, -1, -3
1503958536079,-1, 11, -13, -1, 2, 1, 1, 0
1503958536086,-10, -5, -4, 8, 0, -1, 0, 3
1503958536102,18, 11, -6, 4, -3, 0, 0, 3
1503958536108,-22, 19, 10, 6, 1, 1, -2, 4
1503958536116,6, -33, -5, -2, -5, -4, 0, -3
1503958536132,4, -9, -11, 0, -9, -3, 3, -1
1503958536139,-7, 11, 2, -9, -3, -2, -1, -3
1503958536146,-1, 7, 2, -4, -2, -2, 0, 16
1503958536167,10, 10, 9, -3, 0, 0, 1, 1
1503958536169,5, 29, 12, -6, 4, 0, -2, 0
1503958536176,-5, -31, -2, 0, -2, -3, -4, 6
1503958536190,-12, -12, 11, -2, 3, 1, 0, 4
1503958536199,-20, -26, -4, -4, -1, -1, 0, -6
1503958536206,-8, -16, 8, -4, 5, -1, -4, -8
1503958536222,-3, 3, -3, 8, -1, -1, 0, -3
1503958536231,-10, 4, 5, -6, -1, -1, -1, -11
1503958536237,22, 10, 12, -17, 5, 0, -1, -12
1503958536250,3, -17, -4, -3, -2, -3, -3, -5
1503958536251,-2, -2, -17, 1, -3, -2, 0, 9
1503958536259,-1, -29, -14, 4, -4, -2, 2, 2
1503958536267,16, -14, -3, -2, -5, -3, 0, -9
1503958536282,15, -15, 15, -9, 0, -1, -3, -9
1503958536288,-7, 6, -5, 6, 1, 1, 2, 9
1503958536298,-22, -6, -14, 12, -5, 0, -1, 4
1503958536311,3, 18, -11, -3, -4, -2, -1, 6
1503958536319,-5, 64, 2, -1, 2, 1, -1, -1
1503958536326,2, -21, 29, -10, 9, 2, -5, -6
1503958536343,3, -15, -9, 1, -8, -3, 5, 8
1503958536348,4, 2, -7, 9, 2, 3, -2, -12
1503958536356,-3, -18, -2, 0, 1, 0, 8, 14
1503958536371,4, -10, -17, 2, -6, -2, 0, 1
1503958536379,-9, -17, 9, -3, 7, 2, -4, 7
1503958536386,-2, -9, 3, 0, 0, -1, -3, 6
1503958536402,0, 19, 2, -11, 2, -1, -2, 1
1503958536409,-14, -4, 8, -11, -1, -2, -1, -4
1503958536416,-2, -10, -7, 9, -7, -3, -4, -6
1503958536433,2, -11, -2, -4, -4, -1, 3, 4
1503958536439,-13, 56, -16, 4, -4, -1, -2, -13
1503958536446,7, -2, 6, -6, 3, -2, -4, -11
1503958536461,4, -29, 2, 2, 2, 0, -2, 4
1503958536469,-4, -2, -14, -2, -11, -7, -1, 0
1503958536476,5, -10, 15, -7, -1, 0, -3, -5
1503958536490,1, 15, 4, 5, 6, 0, 1, 6
1503958536499,-3, 9, 0, -3, 0, 2, 1, -14
1503958536506,-15, 3, 5, -4, 1, 0, -2, 2
1503958536522,4, -18, 16, -6, 3, -2, -7, 4
1503958536528,8, -7, -14, -5, -6, -1, 0, -7
1503958536537,-4, 4, 26, -1, 10, 4, -4, -3
1503958536538,1, -4, -8, 13, 2, -1, 1, 0
1503958536551,2, 11, -8, 2, -4, -1, 2, -2
1503958536559,3, 5, 41, -16, 12, 2, -7, 1
1503958536567,3, -24, 4, 2, -1, 0, -1, -6
1503958536582,-5, -9, -1, 6, -3, -1, 0, -3
1503958536588,-7, -3, 2, 1, 2, -1, -1, -2
1503958536600,-4, -13, -13, 0, -7, -3, -1, -1
1503958536610,5, 6, -8, 0, -1, 0, -1, 2
1503958536618,-12, -12, -6, -6, -3, 0, 0, -4
1503958536626,-3, 2, 8, 4, 6, 1, -2, -3
1503958536641,0, 11, -15, 1, -6, -4, 0, -6
1503958536648,-4, -1, 3, 9, 5, 1, 3, -7
1503958536656,1, 3, 0, 1, 2, -2, 1, 1
1503958536673,-1, 4, 12, -11, -5, -1, -9, -12
1503958536679,0, 31, -19, 1, -6, -2, 3, 4
1503958536686,-1, -27, 9, 7, 2, -3, -1, 15
1503958536702,-5, -13, 12, -1, 2, -1, -4, 0
1503958536709,3, 20, 0, -2, -4, -3, 1, -4
1503958536716,6, -5, 3, -1, 2, 3, 6, -7
1503958536730,12, -12, -2, -7, -2, 0, 0, -4
1503958536741,1, -6, 4, -8, -4, -1, 2, 0
1503958536746,-4, -2, -4, 1, 0, 0, 1, -4
1503958536761,6, -16, 1, 2, -1, -3, -8, 10
1503958536768,-15, -12, 1, -4, 1, -2, -1, -15
1503958536769,9, 12, 1, -6, 0, -1, 3, 11
1503958536776,-3, 3, -6, 1, -2, -2, 0, -1
1503958536791,-7, -20, -3, -3, 1, 0, -5, -2
1503958536799,0, 24, -3, -5, 0, 0, 2, 2
1503958536806,1, 38, -24, 4, 1, -1, 1, -10
1503958536821,3, -12, -1, -6, -2, -2, -3, -2
1503958536828,-1, -5, -3, 6, -5, -2, 0, 2
1503958536836,1, -5, 0, -1, 3, 0, -2, -3
1503958536851,7, -14, -1, -1, -9, -2, -5, -9
1503958536859,-4, -3, 4, 2, -3, -1, -5, -5
1503958536868,-3, -9, 1, -1, 1, 0, -1, 3
1503958536869,5, 3, 10, 1, -2, -1, 1, 4
1503958536881,-6, 24, -1, -2, -1, -1, -2, -2
1503958536888,-3, 19, 10, -4, 0, 1, 1, 3
1503958536897,-2, 1, 0, -2, 2, -2, 1, 0
1503958536910,-3, 6, 4, -6, 2, -1, -1, -1
1503958536918,-1, -18, -4, -1, -3, -1, 1, -3
1503958536926,5, -14, 6, -6, 1, -1, -3, 1
1503958536941,1, -15, 0, 0, -3, -1, -1, 0
1503958536949,-4, -1, 0, -4, -2, 0, 1, -6
1503958536957,2, -12, 0, -1, -3, -2, 2, 1
1503958536971,-6, 24, -4, 2, -2, 1, -3, -5
1503958536972,2, -3, -2, -5, 4, -1, -1, 7
1503958536979,-3, 10, -3, 0, -1, -1, 0, -4
1503958536986,-6, -2, -4, 3, -2, 1, -2, -1
1503958537003,-3, -8, -7, -1, -1, -2, 0, 0
1503958537009,-1, 13, 4, 0, -1, -1, -2, -1
1503958537023,5, -3, -2, 0, -2, 0, 0, 3
1503958537024,1, -4, 2, -2, -1, -3, -2, -3
1503958537030,4, -3, -3, 2, -3, 1, 2, 2
1503958537039,-2, -1, -4, 0, -3, -1, 1, -2
1503958537053,-1, -33, 0, 3, 0, -3, -1, 1
1503958537061,0, -2, 1, 3, 1, 1, 0, -1
1503958537071,-3, 10, -3, -6, 0, 0, 0, -1
1503958537084,-6, 18, 1, -5, -3, 1, 0, -2
1503958537090,13, 20, 3, -10, 1, -1, -1, -8
1503958537099,-3, 0, -5, 1, -1, 0, 1, -1
1503958537113,-6, 0, -8, 0, -5, -1, 0, 1
1503958537121,3, -7, -3, 2, -2, 0, -3, 0
1503958537129,-3, -2, 4, -3, 0, -1, -2, 2
1503958537144,0, 4, 7, 0, 0, -3, -1, -2
1503958537150,-4, -4, 9, -1, 2, -1, -3, 1
1503958537159,-2, -5, 2, -1, -3, 0, -1, -1
1503958537173,-6, -5, -1, 1, -2, -2, -2, 4
1503958537182,4, 13, -4, -9, 0, 0, 2, 1
1503958537188,-4, -17, -6, 3, -2, -1, 1, 2
1503958537204,2, 3, -1, -2, 1, -1, -1, -5
1503958537210,-4, -4, -5, -2, 0, 1, 0, -5
1503958537218,1, -1, 8, -1, 0, 0, 0, 5
1503958537233,-6, -6, 5, -1, -4, 2, 0, -2
1503958537241,-6, 37, -6, 1, 1, -1, -1, 1
1503958537249,3, 2, 0, -2, -2, -1, -2, 1
1503958537271,-5, 9, -16, 6, -1, -2, 3, 3
1503958537279,2, -9, -3, -2, -2, -1, -1, 0
1503958537293,2, 16, 6, 2, 0, -1, 0, 0
1503958537301,-4, -19, -10, 0, -3, -2, 0, -3
1503958537309,2, -3, -6, -2, -2, -3, -3, -5
1503958537323,-4, 31, -3, 1, -4, -1, -2, -2
1503958537330,-1, -2, -4, 2, 0, -1, 1, -3
1503958537339,2, -24, 12, -7, 1, 0, -3, 5
1503958537353,-6, -3, 7, -4, 0, 0, -4, -3
1503958537361,-6, -25, -2, 8, -1, -3, 0, 3
1503958537368,1, 29, 13, -4, 5, 1, 0, -4
1503958537369,2, 1, 1, -10, -8, -2, -2, 1
1503958537384,0, 4, -8, 0, -5, -1, 1, 0
1503958537390,3, 4, 11, -6, 6, 0, -2, 3
1503958537398,3, -3, 0, -11, -4, 0, -4, -8
1503958537414,0, -9, -4, 1, 1, -1, -1, -4
1503958537421,0, 29, 1, -3, 1, -1, -1, 1
1503958537440,-1, -24, 1, -6, -1, -1, -3, -1
1503958537443,1, -2, -4, 3, -4, -3, 0, 3
1503958537444,2, -1, 2, 0, 0, -1, 0, -14
1503958537452,3, 2, -1, 2, 4, 1, 2, 7
1503958537458,0, 18, -7, -4, -2, 1, 1, 3
1503958537474,-1, 19, 2, 1, 1, 0, -1, -7
1503958537481,-4, 10, 0, 0, -2, -2, 0, 1
1503958537497,3, -4, -1, 2, -2, -1, 1, 0
1503958537504,-3, -24, -10, 6, 0, 0, 1, 2
1503958537512,-3, -2, -6, -1, -1, -2, -2, -2
1503958537519,-3, -30, -4, 2, -2, -1, -1, -2
1503958537534,-1, 11, 0, -3, -4, -2, 0, -3
1503958537541,-1, -20, -4, 2, 0, 1, 0, 2
1503958537557,-1, -1, 6, -2, -1, -2, -1, 7
1503958537563,-1, -1, -2, -4, -4, -1, 0, 2
1503958537564,3, 8, 5, -2, 0, 2, 0, -3
1503958537573,2, -5, 3, -1, -1, -1, 0, -2
1503958537579,1, 31, 5, -2, 0, -2, -2, -6
1503958537594,-3, 12, -3, -1, -1, -1, 0, -3
1503958537601,-1, -24, 6, -2, -1, -1, -3, 0
1503958537617,-4, -5, -2, 2, -2, 0, 0, -3
1503958537624,-1, 6, 0, 2, 0, -2, 1, 0
1503958537632,-2, -9, -4, -2, -7, 1, 3, 3
1503958537639,2, -9, -1, -1, -1, -1, -2, 2
1503958537654,-1, 2, -1, -1, 4, -1, -1, -4
1503958537661,1, 15, 4, -1, 0, 0, -1, -5
1503958537677,0, -18, -11, -5, 0, -2, -2, -1
1503958537684,3, -9, -1, -7, -1, 0, -3, 1
1503958537692,-1, 9, 0, 1, 4, 0, -1, -3
1503958537698,3, 7, 2, -12, -9, -2, -1, 0
1503958537714,-4, 1, -1, 4, -6, -1, 0, -2
1503958537721,-2, 4, 10, -4, 6, 0, -2, -1
1503958537737,0, -5, 2, -2, 3, -1, -3, 0
1503958537745,-2, -20, 3, 4, 2, 1, 0, 0
1503958537752,-2, 2, 1, 0, -1, 0, 0, -2
1503958537759,0, -3, -6, -3, -8, -1, 0, 0
1503958537778,0, -5, 3, -4, 0, -2, -1, 0
1503958537781,-2, 11, 5, 1, 1, -3, -2, -3
1503958537797,-2, 20, -14, 3, 4, -1, -1, -5
1503958537804,-2, -5, -5, 2, 2, -1, 2, 3
1503958537812,-2, -2, -4, -5, 3, -1, -3, -1
1503958537813,-1, -7, 4, 0, -2, -1, 1, 0
1503958537819,-4, 10, 3, 3, 2, 0, -1, -3
1503958537834,0, -3, -5, 2, 1, 1, -2, -1
1503958537844,1, 4, -1, -3, 1, -1, -1, 1
1503958537857,1, -3, 11, -2, -1, 1, -2, 2
1503958537864,4, -2, -7, -6, -2, -2, 0, 1
1503958537872,-2, -10, 1, -1, -1, 1, 1, 0
1503958537880,1, -7, -8, 3, 1, -1, 0, 2
1503958537894,-2, -1, -4, -2, 2, -1, -1, -5
1503958537902,-1, 0, -7, 1, -6, -2, 1, -13
1503958537903,-2, 1, 0, -1, -1, -1, -1, -9
1503958537917,-1, 14, 5, 5, 3, -1, -1, -2
1503958537924,0, 0, 1, 1, 4, 1, 0, 6
1503958537932,-1, -18, -8, -7, -4, -1, -1, 1
1503958537946,0, -22, 2, -3, -5, -2, -3, -19
1503958537954,0, -16, 1, -4, -4, -2, -1, 3
1503958537961,-3, -10, -2, 1, 3, 0, -1, -1
1503958537977,-2, 4, -1, -2, -1, -3, -2, -5
1503958537984,-3, -6, -3, 0, -3, -1, 0, 9
1503958537992,-1, 10, 2, -2, -6, 0, 0, 7
1503958538006,-1, 12, 2, 0, 0, -1, -2, 6
1503958538014,0, 2, 7, 0, -1, -1, -1, -2
1503958538021,-2, -7, 0, -3, -3, -2, -4, -3
1503958538037,3, -28, -13, -3, -3, -1, -2, -5
1503958538044,-2, 12, 11, -1, 3, 1, -1, -4
1503958538052,0, 3, 3, -3, -2, 0, 1, 0
1503958538066,0, 2, -6, 3, 0, -1, 1, 0
1503958538078,-1, 11, 7, -5, 3, -2, -1, -3
1503958538081,-2, 1, -1, 3, 9, -2, 2, 1
1503958538097,-3, 6, 0, -3, 0, -2, -5, 1
1503958538104,1, 40, -8, -5, -5, -2, 0, -3
1503958538112,1, -2, -6, 6, 1, -2, 1, -3
1503958538126,-2, 4, -5, 2, -2, 0, 4, -5
1503958538134,1, -10, 2, -3, -4, -1, 1, 1
1503958538144,-2, -5, 6, -3, -2, -1, -1, -1
1503958538157,1, -3, -2, -1, 5, 2, 1, 3
1503958538164,-2, -9, -2, 1, 4, 0, -2, 5
1503958538172,-2, 10, 4, 0, -2, -1, 0, 4
1503958538186,-2, -3, 3, 1, -2, 0, 1, -2
1503958538194,-8, 11, 6, 4, -2, -1, -1, -1
1503958538201,-6, -18, 1, -1, -2, -1, -2, -1
1503958538217,1, -3, -2, -8, -2, -1, 0, -4
1503958538224,1, -2, -6, 2, -3, -1, -2, 0
1503958538232,-3, 18, 2, 2, 0, 1, -1, -4
1503958538248,1, -11, 3, 0, 2, -2, 2, -2
1503958538254,3, 6, -7, -11, -8, 1, -2, 0
1503958538261,-3, -3, 6, 2, 1, 2, -2, -3
1503958538279,1, 1, 1, -5, 4, 0, 0, -3
1503958538284,1, -7, -2, -3, -1, -1, -1, -1
1503958538292,0, -5, -4, 2, -2, 0, 0, 2
1503958538306,-1, 15, -4, 0, -3, 0, -2, 0
1503958538314,2, -12, -5, -16, -12, -2, -2, 0
1503958538322,1, 11, -4, -8, -10, -1, -2, 4
1503958538336,-2, 1, 0, 11, 5, -1, 2, -2
1503958538345,0, 19, 8, -5, 1, 1, -2, -3
1503958538352,-3, -11, 3, 8, 6, -1, -2, -5
1503958538366,4, -15, 1, -5, -5, -2, -1, 2
1503958538374,-1, -2, -1, -2, 0, 1, -2, 0
1503958538382,0, -8, -10, 2, 4, -1, -1, -5
1503958538397,2, 19, -6, -1, -2, -2, 1, 0
1503958538404,-6, -2, 4, -6, -2, -1, 0, 6
1503958538413,-2, -7, 1, 0, -9, -1, 1, -3
1503958538426,-2, 13, 12, -7, -1, -2, -6, -10
1503958538434,-2, 3, 10, 10, 9, 0, -3, -2
1503958538441,0, 18, 0, 5, -1, -1, 3, -1
1503958538457,-2, -10, 3, -1, 2, -2, -1, 0
1503958538464,0, -15, -4, 0, -3, -1, 2, 1
1503958538472,-4, -7, -2, 4, -3, 0, 1, 2
1503958538486,3, 14, -2, -10, -2, -3, -1, -1
1503958538494,1, -43, -8, -7, 2, -1, -1, 1
1503958538501,1, -19, -8, 1, -1, -1, 0, 2
1503958538517,2, 1, 6, -11, 0, -1, -3, -13
1503958538524,0, -1, -8, 9, 4, 0, 2, -2
1503958538532,-2, 7, 0, -12, -8, -2, -3, 1
1503958538546,2, 2, 0, -8, -2, 0, 0, 1
1503958538555,2, -5, -2, 10, -6, -1, 0, 4
1503958538561,-3, -12, 4, 6, -1, 0, -1, 2
1503958538577,-5, 51, 12, 0, 2, 0, -1, 2
1503958538584,2, 1, -4, -3, -2, 0, 0, 0
1503958538592,-1, -16, -6, 0, -4, 0, -1, 0
1503958538606,-3, 1, 13, -10, 1, 0, -5, -9
1503958538614,-2, 1, -2, 6, 13, 0, -1, -2
1503958538622,0, 23, 0, 4, -4, -2, 1, -2
1503958538637,-3, 10, -1, -2, 0, -2, -2, -2
1503958538644,1, -8, -4, -6, -2, -1, -2, 3
1503958538652,-2, 35, 0, 2, 5, 0, -1, -1
1503958538666,1, 4, -4, -12, -8, -1, -1, 1
1503958538674,2, -21, -3, -4, -8, -2, -1, -1
1503958538682,-2, -8, 2, 10, 6, 0, 0, -1
1503958538697,1, -9, 4, -3, 3, 0, -1, 1
1503958538704,-3, 7, 2, 0, -1, -1, 2, 0
1503958538712,0, -11, -2, 0, -4, -1, 3, 2
1503958538726,0, -9, 10, 2, 3, 1, -3, -18
1503958538734,-3, 23, -3, 3, -2, -2, -2, 0
1503958538741,-1, 10, -2, -5, -8, -1, -2, 3
1503958538757,2, -17, -3, -5, -4, 0, -1, -4
1503958538764,-2, -27, -8, 4, 4, -3, 1, 3
1503958538772,0, -7, -2, -4, -3, -1, 0, 4
1503958538786,-2, -1, 0, -3, -7, 1, -1, 3
1503958538794,-1, -9, -1, 1, 1, 0, 0, -2
1503958538801,0, 2, -9, -7, -3, 0, -3, -1
1503958538817,0, -4, 5, 1, 0, -1, -2, -3
1503958538824,-3, 3, -4, 1, 3, -2, 1, 2
1503958538839,2, 0, 6, -7, -7, 0, 0, -1
1503958538846,-3, 1, -1, 1, 2, -1, -2, -2
1503958538861,0, 21, 8, -4, 2, -2, 0, -2
1503958538868,0, -14, 0, 4, -1, -2, 0, 0
1503958538876,-3, 14, 0, 0, -3, 0, -1, -4
1503958538884,1, 14, 11, -6, -4, -1, 0, -12
1503958538898,-2, 11, -4, 0, 5, -1, -1, -1
1503958538906,0, -12, -1, 1, 0, 1, 1, 3
1503958538921,-8, 32, 0, 4, 0, 1, -1, 0
1503958538929,-1, -6, -4, 2, 1, -3, 0, 1
1503958538937,2, -18, -8, -3, -1, 1, -1, 0
1503958538944,2, -17, 2, -3, -2, -1, -2, -7
1503958538959,-1, -14, -1, -6, 5, -2, -2, -2
1503958538966,0, -23, -2, -1, 2, -1, 1, 1
1503958538974,-1, -4, -2, -1, -1, -2, -2, -4
1503958538989,-4, -20, -1, 2, 2, 0, 2, 1
1503958538996,2, -24, 3, -10, -6, -2, -2, 2
1503958539003,0, 16, -2, 0, -1, -1, 0, 4
1503958539019,0, -15, 2, -6, -3, -1, 0, -4
1503958539026,2, 49, -5, -6, -1, 0, 0, 1
1503958539042,-2, -10, -2, 6, 1, -1, 0, 0
1503958539050,-5, 15, 0, 0, 0, 0, -1, 0
1503958539057,-2, -6, -5, 1, 3, 0, 1, 4
1503958539064,-4, 1, 4, -1, 1, -1, -2, 0
1503958539079,0, -9, -3, -1, -1, 0, 0, 0
1503958539086,0, 4, 1, -2, -3, -2, -2, 1
1503958539094,1, 8, 0, 0, -4, -1, 1, -2
1503958539109,2, -6, 4, 2, -1, 1, -2, -1
1503958539117,0, 11, 1, -3, -1, 0, -1, 1
1503958539124,0, -7, 0, -3, -6, -2, 0, -3
1503958539138,0, 13, -1, -3, -4, -1, 0, 0
1503958539146,1, 16, -5, -10, -11, 0, -1, -2
1503958539155,-1, -4, 1, 1, 0, -2, -3, -4
1503958539168,-1, -20, -5, 4, 2, -2, 0, -1
1503958539176,2, -17, 6, -2, 0, -2, -1, 2
1503958539184,-2, -1, 2, -3, 0, -1, -3, -5
1503958539199,-1, -15, -2, -3, 0, -2, -4, -4
1503958539206,-1, -1, -6, 2, -1, -1, 1, 1
1503958539214,-1, 19, -2, -4, -2, 0, -1, -1
1503958539229,-1, -4, 6, -7, 3, -1, 0, 0
1503958539236,-4, 4, -3, 2, -5, 0, -1, 0
1503958539244,0, -10, 2, 0, 0, -1, 0, 0
1503958539260,-2, -1, -3, -1, -1, -1, 0, -3
1503958539266,-2, 5, 0, -4, 3, -1, -3, 0
1503958539274,2, 27, -8, 3, 1, 1, 3, 2
1503958539289,-1, -2, -7, 4, 1, -1, -2, 2
1503958539296,-1, -10, 1, -4, 1, -1, -1, 0
1503958539303,0, -25, -3, -1, -1, -1, -1, 3
1503958539319,-3, -21, 1, 1, -2, -2, -1, -1
1503958539327,-2, 0, 0, 4, -6, -1, -3, -2
1503958539334,2, -6, 2, -11, -8, -1, -1, -1
1503958539356,-4, -7, -11, 6, 0, 1, 1, -1
1503958539357,-2, 2, 2, 3, 1, 1, 2, -1
1503958539363,1, -7, 3, -4, 2, -1, 0, -4
1503958539378,1, -42, -7, 2, -1, 0, 0, -2
1503958539386,-2, 27, 9, 1, 4, 0, -1, -1
1503958539394,0, -14, -6, 3, 4, -2, 0, 4
1503958539395,-1, 11, 2, -4, -7, -4, -3, 1
1503958539408,3, 22, -8, -9, -9, -2, 1, -3
1503958539416,-3, 9, 5, 3, 6, 2, -1, -2
1503958539424,-2, -11, 6, 1, 3, 0, 1, 1
1503958539438,2, 24, 1, -7, 0, 0, 0, -2
1503958539446,0, -15, 6, 0, 3, 1, -2, -3
1503958539454,-3, 6, 0, 2, 3, -1, 0, -1
1503958539469,0, -4, 0, -9, -8, -1, -2, 2
1503958539476,-4, -25, -2, 3, 4, -3, -3, 8
1503958539483,-4, -11, -3, 3, 2, -2, -3, -3
1503958539498,-1, 1, 0, 9, 1, 0, 2, -1
1503958539506,3, 0, -6, 1, -1, -1, -1, 1
1503958539514,-2, -14, -1, 2, -3, 0, -1, -4
1503958539528,1, 2, -4, -7, -6, 1, -2, -1
1503958539536,-4, 15, 2, -9, -2, -1, -1, -7
1503958539543,-1, 1, 6, -6, 1, -1, 0, -3
1503958539558,3, -5, 3, -5, -9, -2, -2, -2
1503958539566,-4, 4, 0, 6, 3, -1, -1, -3
1503958539574,-1, 20, 8, -3, 1, 0, -3, -2
1503958539589,3, 0, 5, 1, 0, -2, 0, 1
1503958539596,1, -12, -4, -1, 1, 1, 1, 2
1503958539603,-1, -2, 4, -3, 3, 1, -2, 0
1503958539619,-1, -31, -6, -1, -4, -1, -1, 5
1503958539626,-6, 5, -3, 9, 0, 0, 1, 1
1503958539634,4, 11, -5, -8, -11, -1, 0, 0
1503958539648,-3, 14, -4, 0, -3, -1, -1, -1
1503958539657,-4, -11, 1, 5, 6, 0, 0, -3
1503958539663,-3, 24, -3, 2, 1, -2, -1, -1
1503958539664,0, -11, 0, -4, -1, -1, 0, -4
1503958539678,1, 5, 2, 2, 0, -1, -2, -3
1503958539688,-3, 11, -4, -1, -2, -3, -1, -2
1503958539694,-1, 12, 2, -3, 1, -1, -1, -1
1503958539708,0, -3, -3, -1, 1, -1, 1, 0
1503958539716,-1, 2, 1, -8, 0, -2, -4, -5
1503958539724,3, -16, 1, -2, -2, 0, 0, 8
1503958539738,2, -7, -10, 0, -3, 0, 1, 2
1503958539746,-1, 19, 10, -6, -4, -2, -2, -4
1503958539757,1, -9, 7, -1, 3, 0, 0, -1
1503958539768,0, 1, -5, -2, -3, 0, 0, 2
1503958539769,-1, -33, -3, 3, 1, 1, -1, -1
1503958539776,-3, 20, -2, 1, 0, -2, 0, -3
1503958539783,-4, 6, 0, -2, 3, 0, -3, -3
1503958539798,-2, -7, -6, 3, -1, 1, 0, 0
1503958539806,1, -3, 0, -8, 0, -2, -1, 1
1503958539824,-6, 5, 1, 4, 5, -2, -1, -3
1503958539828,1, -13, 5, -1, -1, 0, -1, -1
1503958539836,3, 4, -4, 7, 1, 0, 3, 2
1503958539850,0, 25, -5, 2, 0, 0, 2, -2
1503958539859,2, -8, 6, -6, -8, 0, -3, 0
1503958539866,-1, -9, 3, 1, -2, -2, 1, -2
1503958539882,-3, 21, 8, 0, 2, 1, 1, -4
1503958539890,-2, -9, -1, -4, -4, -1, -2, 2
1503958539897,-4, 21, 3, 5, 0, 0, 0, 0
1503958539910,-3, -11, -3, -3, 3, 0, -2, -3
1503958539918,1, 2, 12, -7, 0, 0, -1, -3
1503958539926,2, -9, 3, -1, -1, -2, 0, -1
1503958539941,0, -30, -4, -3, -4, -1, 1, 1
1503958539948,-1, -8, 2, -2, 2, -1, 0, 1
1503958539957,2, -13, -8, -12, 1, -1, -3, 0
1503958539970,-3, -2, -4, 6, -1, -1, 2, 1
1503958539978,-1, 5, 4, 4, 1, -3, -1, -2
1503958539986,-3, 6, 9, 1, -2, -1, -3, -3
1503958540001,0, -2, -3, -1, 0, -1, -1, -1
1503958540008,1, -21, -10, 0, -1, -1, 1, -1
1503958540016,-1, -12, -4, -1, -2, -1, 1, 1
1503958540030,-1, 0, -6, -2, 0, 0, 0, 0
1503958540038,1, 0, -10, -4, -9, -2, 0, 1
1503958540046,0, -13, 3, 2, -2, -2, 1, 2
1503958540061,-1, 0, -5, -1, -2, 0, -3, 0
1503958540069,2, 21, -1, -8, -6, -2, -3, -3
1503958540076,-4, -12, -1, 0, 2, 0, -2, -3
1503958540090,-3, 8, -2, -1, 0, -1, 0, -2
1503958540099,1, 30, 3, -6, -2, 0, 1, -1
1503958540106,-4, 5, 1, -5, -2, -2, -3, 6
1503958540122,1, -14, 1, 3, -3, 0, -1, 1
1503958540130,0, 4, -5, 3, 3, 1, 1, -1
1503958540144,-1, -24, 1, -4, 0, 0, -2, -2
1503958540150,-2, 16, 6, 1, 1, 1, 0, -5
1503958540159,-3, -3, -4, 3, -6, -1, 0, -3
1503958540166,0, -14, 4, -10, -4, 0, -2, -3
1503958540181,-2, 6, -7, -3, 0, -2, 2, -2
1503958540196,3, -13, -3, 1, -4, -2, -2, -1
1503958540197,-2, 12, 6, 0, 7, -1, -2, 1
1503958540210,1, 13, -3, 0, 0, -1, 1, 1
1503958540218,-1, -28, 3, 0, 4, 1, -2, -1
1503958540227,-3, 46, -4, 5, -3, -1, -1, 1
1503958540228,0, 3, 4, -2, -3, -1, -2, 0
1503958540241,3, -5, 1, -4, 3, -1, -1, 1
1503958540248,0, 8, -9, -8, -5, 0, -1, -6
1503958540258,-1, 21, 3, 1, -3, 1, 0, 2
1503958540259,-1, -9, 3, -1, 1, -2, -1, -2
1503958540270,-2, 4, 1, 2, 1, 0, -1, -2
1503958540278,1, -4, 0, 2, -2, 0, 2, -1
1503958540286,-3, -12, 9, -1, -1, -2, -2, 0
1503958540301,-1, 3, 4, 2, -3, 0, -1, -1
1503958540308,-1, 2, 1, 5, 3, -1, 2, -1
1503958540316,-6, 54, 0, 3, -3, 0, 1, -2
1503958540330,0, 6, 0, -5, -1, 0, 0, -1
1503958540338,3, 14, 7, -6, 2, -3, -1, -1
1503958540346,0, 4, 0, 0, -1, -1, 0, -1
1503958540361,-1, 7, -2, -5, 5, 1, -1, 1
1503958540368,0, -12, 0, 0, 1, -1, -2, -2
1503958540376,-1, -6, -1, 4, 1, -2, -2, -2
1503958540390,0, 13, -2, -7, -2, -2, 0, -3
1503958540399,0, -2, 1, -5, 2, -1, -1, 1
1503958540406,-2, -14, -3, 3, 0, 0, -1, 1
1503958540421,0, 19, 0, -2, -3, 0, 0, -1
1503958540429,-4, -4, 9, -1, 0, -2, -1, 4
1503958540437,-1, -17, -1, -5, -1, -2, -3, -2
1503958540450,-3, -9, -2, 0, 2, -1, -1, -3
1503958540459,-1, -12, -4, 0, -3, -1, 0, 0
1503958540466,0, -7, -5, -1, 1, -1, -1, -2
1503958540481,-3, 0, 0, 0, 5, -1, 1, -1
1503958540488,0, -6, 0, 1, -2, 1, 0, 1
1503958540497,1, -26, -1, -1, -3, 0, -3, -2
1503958540510,0, 1, -5, 2, -4, 0, 0, 0
1503958540518,-1, -11, 4, -7, -1, 0, -2, -2
1503958540527,4, 19, -4, -10, -11, -1, -1, -2
1503958540541,-1, 6, -11, 3, -5, -2, 1, -2
1503958540549,-1, 6, 5, -3, 4, -2, -2, -2
1503958540557,-3, 2, -5, -1, -1, -1, -2, -2
1503958540570,0, -22, -3, -4, 2, 0, 0, -1
1503958540578,-2, 2, -3, 4, 4, 0, 0, 1
1503958540586,0, 9, 1, 0, -1, 0, 1, -1
1503958540601,-1, 2, 1, -6, -2, -1, -2, -1
1503958540608,-2, -5, 5, 0, 1, -2, 0, -1
1503958540616,1, -1, -2, 4, -7, -1, 1, -1
1503958540630,-2, 6, 10, 2, 1, 0, -3, -2
1503958540638,0, -14, 0, 2, -4, -1, -1, -1
1503958540646,-2, 1, -2, 4, -3, -1, -2, -2
1503958540665,0, 7, -6, 1, -10, -1, 1, 3
1503958540668,-3, -4, 4, -1, 2, 0, 0, -2
1503958540669,-3, 11, -5, 2, 2, 0, 2, 0
1503958540676,1, 12, -1, -8, 1, 0, -1, -15
1503958540690,0, -17, -5, -2, -1, -1, -4, -2
1503958540698,1, -30, -1, -6, 1, 0, -1, 4
1503958540706,-1, -7, -4, -4, -7, 0, 0, -3
1503958540721,1, -7, 4, -7, -1, 0, -3, 3
1503958540730,1, -14, -2, -1, 0, -2, 0, 1
1503958540743,-3, -1, 6, 3, 0, 0, 1, 3
1503958540750,-1, 8, -6, -3, -1, -1, 2, 0
1503958540758,-2, -18, 5, 1, 3, -1, -2, 0
1503958540773,-3, -1, -3, -1, 0, 0, -1, -2
1503958540781,-2, 6, -4, 1, 0, -1, 0, -2
1503958540788,-1, -43, -9, 4, 0, 0, -1, -1
1503958540789,2, 46, 16, -2, 5, 0, -3, -12
1503958540804,1, 4, 3, -3, -7, -2, -4, -3
1503958540810,0, 3, 0, -1, -6, -1, 0, 2
1503958540819,-2, 13, -3, 4, 2, 0, 0, -1
1503958540833,-2, -16, -3, 1, 1, 0, -3, 2
1503958540841,-5, 59, -4, 2, 0, -1, 2, 1
1503958540848,0, -5, 0, -3, 1, -2, 0, 0
1503958540867,0, -6, -2, -3, 1, -1, 0, -1
1503958540871,-3, 26, 1, 4, -2, 0, 0, 1
1503958540878,-1, -17, 0, 2, 2, -2, 0, -2
1503958540893,-3, -23, 1, 2, -1, -2, -1, -1
1503958540901,2, -11, -5, -5, 0, -1, 0, 2
1503958540908,0, -7, 2, -2, 5, -1, -2, -2
1503958540923,4, 2, 4, -9, 2, 1, -1, -11
1503958540931,1, -29, -11, -3, -4, -1, 0, 1
1503958540939,1, -12, 1, 3, -4, 0, 0, 2
1503958540953,-1, 3, 0, -3, -1, -1, 0, -1
1503958540964,-4, 4, 6, 0, -1, -2, -1, 1
1503958540968,1, 27, 0, 2, -3, 0, 1, 1
1503958540983,-1, 4, -7, 4, -1, 0, 0, 1
1503958540990,-1, 4, 6, -4, -1, -1, 0, -2
1503958540998,-1, 9, 1, 1, 0, -1, 1, -1
1503958540999,-2, -12, 2, 2, 2, 0, -1, -1
1503958541013,1, 3, 2, 1, -6, 0, -2, -1
1503958541021,0, -7, 2, -3, -1, -1, 0, 2
1503958541032,0, -5, 9, -4, 4, -1, -1, 1
1503958541043,-3, 1, -1, 0, 0, -1, -2, -1
1503958541050,-2, 5, -12, -1, -5, -1, -1, 1
1503958541058,4, -6, 0, -14, -2, -1, -3, -1
1503958541073,-2, -13, 0, 1, 1, -1, -2, -2
1503958541081,-2, -10, -1, 1, 0, -1, -1, 3
1503958541088,-2, 9, -2, -2, -1, -2, 0, 0
1503958541104,0, 0, -4, 0, -4, 0, 0, -1
1503958541110,0, 2, 1, -4, 1, 0, -2, -2
1503958541118,0, 27, -4, -2, -1, -1, -1, -3
1503958541133,1, -18, -7, 0, 0, -1, -3, 1
1503958541141,-2, 11, 9, -4, 0, -2, -2, -4
1503958541142,-1, -20, 0, 0, -3, -1, 2, 1
1503958541148,-2, -2, -4, 1, 1, -1, 3, -2
1503958541166,-2, -5, 0, 1, -1, -2, -2, -1
1503958541170,-1, 1, 1, -1, 2, -1, -2, -3
1503958541178,-2, 5, 0, 1, -1, -1, 1, 0
1503958541193,-1, -13, 3, -1, 1, 0, -1, 2
1503958541201,-1, -10, 2, -1, 0, -2, -2, -1
1503958541209,-3, 17, -3, 1, 0, -2, -2, -1
1503958541223,-2, 16, 1, -1, -2, 0, -2, -3
1503958541232,-2, 1, 6, -7, -12, -1, -3, 0
1503958541238,-2, -10, 3, 3, 2, 0, -1, -3
1503958541253,-1, 3, 3, -1, 2, -1, -2, -4
1503958541261,-2, 8, 4, 1, -3, -2, 0, -1
1503958541271,-1, -8, -6, -4, 2, 0, 1, 2
1503958541283,-1, -19, -5, 1, -1, 1, -1, 0
1503958541290,-2, -7, 4, 2, -1, -1, -1, -1
1503958541299,-2, 8, 2, -1, 2, -1, -3, -1
1503958541313,-2, 11, -2, -1, -6, -1, 2, 8
1503958541322,2, -11, 1, 0, -2, -1, 1, 1
1503958541328,-1, 11, 2, -3, -6, -4, -1, -3
1503958541344,1, 5, -3, -2, -2, 0, -1, 2
1503958541350,1, -23, 6, 0, 5, 0, -2, -3
1503958541359,2, 20, -1, -5, -2, -1, -1, -3
1503958541373,1, -16, 2, -1, 2, -1, -2, 0
1503958541381,-2, 9, -6, -3, 0, 0, 2, 2
1503958541390,-3, 4, -7, 3, -1, 0, 3, 7
1503958541404,-1, -13, -12, -1, -2, 0, 1, -4
1503958541410,1, -5, 0, 2, 0, -1, 1, -4
1503958541418,2, -8, 3, -4, 0, -1, -2, -11
1503958541433,-3, -4, -3, 0, -2, 0, -1, -3
1503958541442,-2, 7, 5, 0, -2, 0, 0, -2
1503958541448,-1, 16, 3, -3, 1, -1, -2, -2
1503958541463,-2, -12, -5, -3, 0, -1, -1, 5
1503958541470,-4, 15, -3, 2, 1, 0, 1, -1
1503958541478,1, 8, -2, -5, -1, 1, -1, 2
1503958541493,2, 2, -3, -5, 0, -2, -2, -3
1503958541501,-2, -4, 8, 3, 1, -2, -1, 0
1503958541509,0, -6, 1, 1, 3, 0, -2, -2
1503958541523,-5, -4, -8, 2, -1, -3, -2, 12
1503958541530,-1, -2, 2, -2, -2, -1, 0, -3
1503958541539,-2, -12, -3, -1, -1, -2, -1, 0
1503958541553,-1, 8, 0, -3, -2, -1, -2, -1
1503958541561,0, -6, -1, -2, 5, 0, 2, -4
1503958541569,2, -24, 3, -7, 0, -1, -1, -2
1503958541583,3, 11, 3, 3, -5, 1, 0, 1
1503958541584,-2, -2, 1, 2, 3, 0, 1, -2
1503958541591,-1, 4, -2, -1, -3, 0, -1, 0
1503958541599,-2, 2, 0, -3, -5, -1, -1, -2
1503958541613,0, -4, -3, -6, -3, 1, -1, -3
1503958541622,0, -1, 2, -5, -4, 0, -2, -3
1503958541628,-5, -4, -1, 5, 7, -2, 1, 0
1503958541643,-1, 3, -2, 3, -1, -2, 0, 6
1503958541651,0, 22, 2, -1, 0, -1, 0, -1
1503958541666,1, -9, -6, 4, 3, 0, 1, -6
1503958541667,-1, -3, 4, -2, -2, 0, -1, -1
1503958541674,2, -4, -3, 0, 2, 1, -3, -7
1503958541681,3, 9, 5, -4, 1, 0, -1, -5
1503958541695,-4, -8, -2, -1, -5, 1, 0, 3
1503958541705,1, -6, -2, -1, 1, -1, -1, -4
1503958541711,-1, -3, 2, -2, -3, -1, -2, -1
1503958541726,-3, -8, 0, 1, 0, -2, -3, -1
1503958541733,2, 9, 1, 3, -14, -3, -2, -4
1503958541741,1, 1, 2, -4, -3, -1, -1, 0
1503958541755,-1, 50, 11, -6, 5, -1, 0, -1
1503958541763,-4, -14, -6, 6, -5, -2, -1, -2
1503958541771,1, -19, -4, -4, 2, -1, 1, 1
1503958541787,6, 24, 3, -8, 2, 1, 0, -9
1503958541793,-1, -10, -8, 2, 2, -1, -2, -3
1503958541806,-2, -7, 1, 1, 5, -2, -2, -2
1503958541816,1, -8, 0, 1, 6, 0, 2, -1
1503958541826,-2, -3, 0, -8, -2, -1, -2, -2
1503958541831,0, -10, 0, -1, -1, -1, 0, 2
1503958541846,-1, -25, -7, 3, -4, -1, 0, -2
1503958541853,-2, -15, 1, -4, -4, 0, -4, 1
1503958541861,-1, -9, 5, -4, -3, 0, -3, 1
1503958541875,-7, 13, 4, 3, 0, 0, 1, -15
1503958541883,-1, 17, 2, -2, 1, 0, -1, 2
1503958541891,3, 2, 3, -8, -3, -1, 0, 3
1503958541906,-1, 11, 2, -1, -2, 0, -1, 0
1503958541913,2, -6, 4, -23, -17, -3, -6, -2
1503958541921,0, 3, -4, 2, -2, -2, 1, 1
1503958541940,-6, -24, -5, 11, 4, 0, 2, 3
